step,energy,beta,lambda,delta
0,1.53735,12978.9,1,0.03
1,1.53563,3349,1,0.03
2,1.53288,1592.04,1,0.03
3,1.53014,1734.01,1,0.03
4,1.52585,771.072,1,0.03
5,1.52332,1722.66,1,0.03
6,1.52177,2887.55,1,0.03
7,1.519,1061.48,1,0.03
8,1.51646,1777.86,1,0.03
9,1.5143,4014.4,1,0.03
10,1.51221,1538.81,1,0.03
11,1.51002,1170.51,1,0.03
12,1.50804,3531.71,1,0.03
13,1.50574,3025.1,1,0.03
14,1.50451,3638.43,1,0.03
15,1.5031,34610.4,1,0.03
16,1.50233,3455.76,1,0.03
17,1.50148,2356.32,1,0.03
18,1.5003,15425.3,1,0.03
19,1.4976,1635.32,1,0.03
20,1.49437,1238.14,1,0.03
21,1.49323,9341.46,1,0.03
22,1.49228,181704,1,0.03
23,1.4898,2884.51,1,0.03
24,1.4884,2362.91,1,0.03
25,1.48722,25062.7,1,0.03
26,1.48567,2619.58,1,0.03
27,1.48555,30284.1,1,0.03
28,1.48599,27570.6,1,0.03
29,1.48458,2580.04,1,0.03
30,1.48398,3354.07,1,0.03
31,1.48269,2497.05,1,0.03
32,1.48208,4632.56,1,0.03
33,1.48059,145363,1,0.03
34,1.47839,13713.5,1,0.03
35,1.47661,2061.61,1,0.03
36,1.47711,3217.88,1.00184,0.03
37,1.47534,3375.27,1.00184,0.03
38,1.47377,4623.57,1.00184,0.03
39,1.47275,3871.2,1.00184,0.03
40,1.47098,5506.24,1.00184,0.03
41,1.4698,2120.02,1.00184,0.03
42,1.47025,2415.14,1.00184,0.03
43,1.46816,1941.21,1.00184,0.03
44,1.4661,8171.39,1.00184,0.03
45,1.46648,2636.19,1.00369,0.03
46,1.46533,2780.67,1.00369,0.03
47,1.46486,15793.4,1.00369,0.03
48,1.46333,1881.19,1.00369,0.03
49,1.46133,3241.27,1.00369,0.03
50,1.46086,3528.89,1.00369,0.03
51,1.46167,145364,1.00369,0.03
52,1.46005,1458.39,1.00369,0.03
53,1.45804,2528.93,1.00369,0.03
54,1.45728,1217.6,1.00369,0.03
55,1.45646,2396.87,1.00369,0.03
56,1.45582,1490.97,1.00369,0.03
57,1.45337,1533.43,1.00369,0.03
58,1.45329,1818.66,1.00369,0.03
59,1.4518,1140.92,1.00369,0.03
60,1.4503,1815.58,1.00369,0.03
61,1.4501,72681.7,1.00369,0.03
62,1.44964,4537.85,1.00369,0.03
63,1.44768,1940.66,1.00369,0.03
64,1.44599,4357.62,1.00369,0.03
65,1.44601,2570.17,1.00554,0.03
66,1.44586,3992.79,1.00554,0.03
67,1.44524,7675.3,1.00554,0.03
68,1.44249,835.969,1.00554,0.03
69,1.44295,3053.26,1.00554,0.03
70,1.44243,3424.81,1.00554,0.03
71,1.44053,4813.48,1.00554,0.03
72,1.44005,2356.16,1.00554,0.03
73,1.44005,2283.19,1.00554,0.03
74,1.43813,1352.19,1.00554,0.03
75,1.43919,2427.69,1.00739,0.03
76,1.43702,3766.61,1.00739,0.03
77,1.43679,2144.46,1.00739,0.03
78,1.43546,1305.92,1.00739,0.03
79,1.43431,1779.19,1.00739,0.03
80,1.43361,1904.02,1.00739,0.03
81,1.43402,9116.86,1.00739,0.03
82,1.43381,2521.43,1.00739,0.03
83,1.43143,11356.5,1.00739,0.03
84,1.42972,1521.69,1.00739,0.03
85,1.42805,4463.82,1.00739,0.03
86,1.42704,2006.06,1.00739,0.03
87,1.4272,11117.7,1.00924,0.03
88,1.42566,1000.81,1.00924,0.03
89,1.42504,6524.68,1.00924,0.03
90,1.42538,9200.36,1.00924,0.03
91,1.42472,1933.83,1.00924,0.03
92,1.42285,1708,1.00924,0.03
93,1.42136,1668.94,1.00924,0.03
94,1.42054,2709.5,1.00924,0.03
95,1.41916,9018.58,1.00924,0.03
96,1.41764,2924.57,1.00924,0.03
97,1.41578,1848.98,1.00924,0.03
98,1.41652,5168.92,1.0111,0.03
99,1.41589,10681.5,1.0111,0.03
100,1.41414,931.952,1.0111,0.03
101,1.41323,2125.61,1.0111,0.03
102,1.41364,1779.18,1.0111,0.03
103,1.41384,8657.66,1.01297,0.03
104,1.41307,1695.59,1.01297,0.03
105,1.41216,1303.03,1.01297,0.03
106,1.41044,2378.88,1.01297,0.03
107,1.40956,19126.8,1.01297,0.03
108,1.40868,1474.51,1.01297,0.03
109,1.40829,4306.15,1.01297,0.03
110,1.40727,2679.65,1.01297,0.03
111,1.40608,1734.97,1.01297,0.03
112,1.40516,1315.2,1.01297,0.03
113,1.40435,2378.24,1.01297,0.03
114,1.40273,8863.63,1.01297,0.03
115,1.40203,1288.41,1.01297,0.03
116,1.4004,834.47,1.01297,0.03
117,1.39992,6614.99,1.01297,0.03
118,1.40026,8463.06,1.01297,0.03
119,1.40078,42758.5,1.01483,0.03
120,1.39697,690.735,1.01483,0.03
121,1.39624,3115.74,1.01483,0.03
122,1.39593,29072.7,1.01483,0.03
123,1.39702,3365.5,1.01483,0.03
124,1.39515,1961.72,1.01483,0.03
125,1.39493,1472.2,1.01483,0.03
126,1.39446,4403.52,1.01483,0.03
127,1.39337,1571.45,1.01483,0.03
128,1.39186,1488.32,1.01483,0.03
129,1.3898,967.525,1.01483,0.03
130,1.38925,2359.31,1.01483,0.03
131,1.39084,15528.9,1.0167,0.03
132,1.39148,5115.75,1.0167,0.03
133,1.39191,11219.3,1.01857,0.03
134,1.38856,763.578,1.01857,0.03
135,1.38602,899.044,1.01857,0.03
136,1.38686,5066.95,1.01857,0.03
137,1.38464,9443.85,1.01857,0.03
138,1.38405,9729.19,1.01857,0.03
139,1.38338,1900.85,1.01857,0.03
140,1.37937,1891.78,1.01857,0.03
141,1.37863,27956.9,1.01857,0.03
142,1.37689,1330.04,1.01857,0.03
143,1.37477,3657.92,1.01857,0.03
144,1.37362,3535.65,1.01857,0.03
145,1.37311,3591.97,1.01857,0.03
146,1.37179,1034.63,1.01857,0.03
147,1.37084,3095.36,1.01857,0.03
148,1.36828,1163.86,1.01857,0.03
149,1.36794,4574.24,1.01857,0.03
150,1.36739,7815.42,1.01857,0.03
151,1.36761,121136,1.02045,0.03
152,1.36434,1003.65,1.02045,0.03
153,1.36334,2003.51,1.02045,0.03
154,1.36505,1448.8,1.02045,0.03
155,1.3635,1467.84,1.02045,0.03
156,1.36257,3765.92,1.02045,0.03
157,1.36362,80757.5,1.02233,0.03
158,1.36288,1094.53,1.02233,0.03
159,1.36296,363409,1.02233,0.03
160,1.36322,2588.47,1.02421,0.03
161,1.359,1045.52,1.02421,0.03
162,1.36003,9934.95,1.02421,0.03
163,1.36043,14536.6,1.0261,0.03
164,1.36015,1685.65,1.0261,0.03
165,1.35888,1452.26,1.0261,0.03
166,1.35793,9439.19,1.0261,0.03
167,1.35714,36340.9,1.0261,0.03
168,1.35685,7058.79,1.0261,0.03
169,1.35578,2522.95,1.0261,0.03
170,1.35515,6265.67,1.0261,0.03
171,1.35495,34610.4,1.0261,0.03
172,1.35397,3568.27,1.0261,0.03
173,1.35176,4006.73,1.0261,0.03
174,1.35024,3492.82,1.0261,0.03
175,1.34693,546.276,1.0261,0.03
176,1.34759,10911.8,1.0261,0.03
177,1.34547,1595.33,1.0261,0.03
178,1.34595,66074.3,1.02799,0.03
179,1.34299,623.46,1.02799,0.03
180,1.34114,716.579,1.02799,0.03
181,1.34099,2484.14,1.02799,0.03
182,1.34065,1313.13,1.02799,0.03
183,1.34162,1440.81,1.02799,0.03
184,1.34255,8186.72,1.02988,0.03
185,1.34072,741.275,1.02988,0.03
186,1.33979,16902.7,1.02988,0.03
187,1.3392,1925.82,1.02988,0.03
188,1.33812,2665.94,1.02988,0.03
189,1.33809,1974.5,1.02988,0.03
190,1.33931,5429.44,1.02988,0.03
191,1.33906,3753.87,1.02988,0.03
192,1.33985,2890.1,1.03178,0.03
193,1.34025,2314.67,1.03178,0.03
194,1.33794,834.483,1.03178,0.03
195,1.33803,1437.8,1.03368,0.03
196,1.33809,1546.29,1.03368,0.03
197,1.33747,1558.11,1.03368,0.03
198,1.33801,2912.74,1.03558,0.03
199,1.33651,902.351,1.03558,0.03
200,1.33899,2914.8,1.03558,0.03
201,1.33788,1415.62,1.03558,0.03
202,1.33807,1739.7,1.03749,0.03
203,1.33841,2788.15,1.03749,0.03
204,1.33716,1359.07,1.03749,0.03
205,1.33381,630.756,1.03749,0.03
206,1.33136,802.125,1.03749,0.03
207,1.33149,3396.03,1.0394,0.03
208,1.33124,3825.6,1.0394,0.03
209,1.33062,4941.54,1.0394,0.03
210,1.33015,4071.41,1.0394,0.03
211,1.33119,3003.5,1.0394,0.03
212,1.33042,1401.46,1.0394,0.03
213,1.33117,1799.96,1.04132,0.03
214,1.33184,1281.15,1.04132,0.03
215,1.33299,3470.86,1.04324,0.03
216,1.33102,1701.27,1.04324,0.03
217,1.33169,2502.51,1.04324,0.03
218,1.33158,3967.89,1.04324,0.03
219,1.33041,2065.2,1.04324,0.03
220,1.33074,1163.77,1.04516,0.03
221,1.32907,1504.92,1.04516,0.03
222,1.32726,938.838,1.04516,0.03
223,1.32608,2386.21,1.04516,0.03
224,1.32602,3268.25,1.04516,0.03
225,1.32586,1343.9,1.04516,0.03
226,1.32465,1572.97,1.04516,0.03
227,1.32449,1111.26,1.04516,0.03
228,1.32191,767.246,1.04516,0.03
229,1.32273,1768.61,1.04516,0.03
230,1.32075,1784.43,1.04516,0.03
231,1.32019,1160.73,1.04516,0.03
232,1.31989,722.855,1.04516,0.03
233,1.31859,8259.29,1.04516,0.03
234,1.31847,2136.78,1.04516,0.03
235,1.31723,1605.73,1.04516,0.03
236,1.3177,1388.48,1.04708,0.03
237,1.31606,801.22,1.04708,0.03
238,1.31799,3842.25,1.04708,0.03
239,1.31606,891.625,1.04708,0.03
240,1.31499,10236.9,1.04708,0.03
241,1.31585,4094.45,1.04901,0.03
242,1.31533,1277.27,1.04901,0.03
243,1.31587,1602.72,1.04901,0.03
244,1.31678,11012.4,1.05094,0.03
245,1.31539,1034.53,1.05094,0.03
246,1.31584,363409,1.05094,0.03
247,1.31504,1310.55,1.05094,0.03
248,1.31182,822.392,1.05094,0.03
249,1.31175,1009.5,1.05094,0.03
250,1.31151,1750.99,1.05094,0.03
251,1.31284,4919.69,1.05288,0.03
252,1.31181,853.19,1.05288,0.03
253,1.31333,6478.41,1.05288,0.03
254,1.31203,1193.42,1.05288,0.03
255,1.3114,12989.5,1.05288,0.03
256,1.31211,3299.99,1.05482,0.03
257,1.31203,2380.59,1.05482,0.03
258,1.31277,2371.41,1.05482,0.03
259,1.3126,2723.36,1.05482,0.03
260,1.31131,857.494,1.05482,0.03
261,1.30964,1221.83,1.05482,0.03
262,1.31114,1605.22,1.05676,0.03
263,1.30968,1290.31,1.05676,0.03
264,1.30779,5506.19,1.05676,0.03
265,1.30634,12979,1.05676,0.03
266,1.30727,3144.65,1.05676,0.03
267,1.30558,903.569,1.05676,0.03
268,1.30589,1901.17,1.05871,0.03
269,1.30607,6729.81,1.05871,0.03
270,1.30579,2895.15,1.05871,0.03
271,1.30514,1002.49,1.05871,0.03
272,1.30269,1111.48,1.05871,0.03
273,1.30055,1161.02,1.05871,0.03
274,1.30117,1364.88,1.06066,0.03
275,1.30183,8315.13,1.06066,0.03
276,1.30366,4362.77,1.06261,0.03
277,1.30438,1191.52,1.06261,0.03
278,1.30275,925.427,1.06261,0.03
279,1.3016,1117.92,1.06261,0.03
280,1.29945,754.054,1.06261,0.03
281,1.29866,1685.61,1.06261,0.03
282,1.2988,1015.65,1.06457,0.03
283,1.29662,13747.8,1.06457,0.03
284,1.29719,3071.28,1.06457,0.03
285,1.29681,2711.84,1.06457,0.03
286,1.29638,2157.43,1.06457,0.03
287,1.29572,1926.78,1.06457,0.03
288,1.29667,2080.9,1.06653,0.03
289,1.29551,1274.22,1.06653,0.03
290,1.29692,1561.94,1.06653,0.03
291,1.29832,2764.61,1.0685,0.03
292,1.29926,1638.16,1.0685,0.03
293,1.29788,8376.48,1.0685,0.03
294,1.29791,8833.93,1.07046,0.03
295,1.29449,551.988,1.07046,0.03
296,1.29252,45426.1,1.07046,0.03
297,1.2916,1457.57,1.07046,0.03
298,1.29212,5590.91,1.07046,0.03
299,1.29276,1789.94,1.07244,0.03
300,1.29317,925.151,1.07244,0.03
301,1.29011,1221.13,1.07244,0.03
302,1.28983,1199.72,1.07244,0.03
303,1.29028,7913.65,1.07441,0.03
304,1.28948,2229.08,1.07441,0.03
305,1.28888,755.311,1.07441,0.03
306,1.29064,1583.68,1.07441,0.03
307,1.29039,4332.25,1.07441,0.03
308,1.28963,1149.96,1.07441,0.03
309,1.29082,9220.57,1.07639,0.03
310,1.29177,2815.68,1.07639,0.03
311,1.2912,992.701,1.07639,0.03
312,1.29182,1619.63,1.07837,0.03
313,1.29122,2197,1.07837,0.03
314,1.29217,2765.7,1.07837,0.03
315,1.29331,1984,1.08036,0.03
316,1.28927,707.912,1.08036,0.03
317,1.28754,1852.89,1.08036,0.03
318,1.28748,1026.8,1.08036,0.03
319,1.28758,992.54,1.08036,0.03
320,1.28551,732.81,1.08036,0.03
321,1.2861,15800.4,1.08235,0.03
322,1.28641,2096.21,1.08235,0.03
323,1.28643,3001.84,1.08434,0.03
324,1.28611,2305.89,1.08434,0.03
325,1.28719,4204.42,1.08434,0.03
326,1.28816,3515.78,1.08634,0.03
327,1.28806,4210.57,1.08634,0.03
328,1.28625,1459.35,1.08634,0.03
329,1.28617,4720.17,1.08634,0.03
330,1.28574,2032.44,1.08634,0.03
331,1.28467,1425.64,1.08634,0.03
332,1.2844,3461.27,1.08634,0.03
333,1.28465,906.404,1.08634,0.03
334,1.28615,4635.57,1.08834,0.03
335,1.28535,1718.62,1.08834,0.03
336,1.28546,2198.14,1.08834,0.03
337,1.28627,1553.99,1.09035,0.03
338,1.28883,5037.06,1.09035,0.03
339,1.29207,2541.37,1.09235,0.03
340,1.29001,3001.15,1.09235,0.03
341,1.29046,4651.96,1.09235,0.03
342,1.28914,1799.2,1.09235,0.03
343,1.28866,2554.19,1.09235,0.03
344,1.28686,745.101,1.09235,0.03
345,1.28662,1559.14,1.09235,0.03
346,1.28382,1234.65,1.09235,0.03
347,1.28495,1204.61,1.09437,0.03
348,1.2841,1854.99,1.09437,0.03
349,1.28422,1464.4,1.09437,0.03
350,1.28563,1970.97,1.09638,0.03
351,1.28643,3432.44,1.09638,0.03
352,1.28466,732.63,1.09638,0.03
353,1.2835,1239.32,1.09638,0.03
354,1.28166,515.669,1.09638,0.03
355,1.28168,2119.21,1.0984,0.03
356,1.284,1789.72,1.0984,0.03
357,1.28527,3536.01,1.10043,0.03
358,1.28606,20189.4,1.10043,0.03
359,1.28675,1496.12,1.10245,0.03
360,1.28672,6978.67,1.10245,0.03
361,1.28707,5230.97,1.10245,0.03
362,1.2828,1927.78,1.10245,0.03
363,1.28218,2005.88,1.10245,0.03
364,1.27961,3412.34,1.10245,0.03
365,1.28057,1471.23,1.10448,0.03
366,1.2813,5594.47,1.10448,0.03
367,1.2812,3754.64,1.10448,0.03
368,1.28113,1349.29,1.10448,0.03
369,1.28082,1868.14,1.10448,0.03
370,1.28232,4572.15,1.10652,0.03
371,1.28233,1279.27,1.10652,0.03
372,1.28319,4703.78,1.10856,0.03
373,1.28507,8114.48,1.10856,0.03
374,1.28291,1046,1.10856,0.03
375,1.27981,3288.83,1.10856,0.03
376,1.28079,1857.38,1.1106,0.03
377,1.28212,1502.04,1.1106,0.03
378,1.28162,2265.63,1.1106,0.03
379,1.2818,5344.48,1.11264,0.03
380,1.28097,2602.96,1.11264,0.03
381,1.28259,23465.4,1.11264,0.03
382,1.28284,1635.76,1.11469,0.03
383,1.28368,10549,1.11469,0.03
384,1.28318,13977.3,1.11469,0.03
385,1.28124,1593.46,1.11469,0.03
386,1.28065,978.655,1.11469,0.03
387,1.27936,1438.65,1.11469,0.03
388,1.27957,1182.91,1.11675,0.03
389,1.27706,1081.14,1.11675,0.03
390,1.27677,1790.39,1.11675,0.03
391,1.27723,90852.2,1.11675,0.03
392,1.27844,5634.25,1.1188,0.03
393,1.27951,1534.87,1.1188,0.03
394,1.28049,8774.34,1.12086,0.03
395,1.27809,601.121,1.12086,0.03
396,1.27651,2819.54,1.12086,0.03
397,1.27583,1913.53,1.12086,0.03
398,1.27356,2279.45,1.12086,0.03
399,1.27419,5549.16,1.12086,0.03
400,1.27649,3338.15,1.12293,0.03
401,1.27842,4148.11,1.12293,0.03
402,1.27867,2616.14,1.125,0.03
403,1.28023,3635.72,1.125,0.03
404,1.27998,1129.22,1.125,0.03
405,1.27923,1781.92,1.125,0.03
406,1.27846,1435.71,1.125,0.03
407,1.27868,1098.7,1.12707,0.03
408,1.27915,19839,1.12707,0.03
409,1.28091,2729.06,1.12915,0.03
410,1.28119,928.944,1.12915,0.03
411,1.28047,956.393,1.12915,0.03
412,1.2806,1422.8,1.13123,0.03
413,1.2808,3857.33,1.13123,0.03
414,1.27948,1025.02,1.13123,0.03
415,1.27924,1061.69,1.13123,0.03
416,1.27872,1366.25,1.13123,0.03
417,1.27783,882.321,1.13123,0.03
418,1.27754,1358.52,1.13123,0.03
419,1.27803,6447.91,1.13331,0.03
420,1.27891,1690.9,1.13331,0.03
421,1.27856,1594.61,1.13331,0.03
422,1.2797,1209.41,1.1354,0.03
423,1.28095,5037.61,1.1354,0.03
424,1.28096,4439.31,1.13749,0.03
425,1.28028,3755.15,1.13749,0.03
426,1.2808,15606.1,1.13749,0.03
427,1.28323,20422,1.13958,0.03
428,1.28078,3776.37,1.13958,0.03
429,1.28231,3521.72,1.13958,0.03
430,1.28455,31600.8,1.14168,0.03
431,1.28504,1055.27,1.14168,0.03
432,1.28166,690.105,1.14168,0.03
433,1.28267,4049.92,1.14379,0.03
434,1.28255,971.551,1.14379,0.03
435,1.28071,842.745,1.14379,0.03
436,1.28037,1212.39,1.14379,0.03
437,1.27981,1515.86,1.14379,0.03
438,1.27947,1379.47,1.14379,0.03
439,1.27899,11182.1,1.14379,0.03
440,1.28038,2897.34,1.14379,0.03
441,1.28179,1695.92,1.14589,0.03
442,1.27662,1092.03,1.14589,0.03
443,1.27393,772.63,1.14589,0.03
444,1.27209,4837.45,1.14589,0.03
445,1.27173,925.928,1.14589,0.03
446,1.27449,48454.5,1.14589,0.03
447,1.27417,31600.8,1.14589,0.03
448,1.27426,7979.92,1.148,0.03
449,1.27313,734.66,1.148,0.03
450,1.27258,888.827,1.148,0.03
451,1.27208,1700.7,1.148,0.03
452,1.27094,1263.18,1.148,0.03
453,1.27113,1360.17,1.148,0.03
454,1.27115,2581.08,1.15012,0.03
455,1.27354,29072.7,1.15012,0.03
456,1.27312,672.284,1.15012,0.03
457,1.27359,1330.72,1.15224,0.03
458,1.27265,1077.89,1.15224,0.03
459,1.2719,2168.85,1.15224,0.03
460,1.26976,1326.55,1.15224,0.03
461,1.27053,1154.96,1.15224,0.03
462,1.27039,1362.45,1.15224,0.03
463,1.27271,3268.06,1.15436,0.03
464,1.27133,2947.39,1.15436,0.03
465,1.27034,2087.12,1.15436,0.03
466,1.27225,4908.22,1.15436,0.03
467,1.27192,2743.5,1.15436,0.03
468,1.27022,690.995,1.15436,0.03
469,1.26944,1741.47,1.15436,0.03
470,1.26995,14833,1.15649,0.03
471,1.26959,2686.55,1.15649,0.03
472,1.26953,918.623,1.15649,0.03
473,1.27028,1950.64,1.15649,0.03
474,1.27102,4781.72,1.15862,0.03
475,1.26978,19126.8,1.15862,0.03
476,1.26834,783.539,1.15862,0.03
477,1.26869,3524.47,1.15862,0.03
478,1.26736,1939.55,1.15862,0.03
479,1.26845,2262.48,1.16075,0.03
480,1.26819,851.794,1.16075,0.03
481,1.26684,1038.39,1.16075,0.03
482,1.26784,14192.9,1.16075,0.03
483,1.26843,829.126,1.16289,0.03
484,1.26716,1174.94,1.16289,0.03
485,1.26781,2226.13,1.16289,0.03
486,1.26667,594.223,1.16289,0.03
487,1.26725,3376.43,1.16503,0.03
488,1.26333,361.287,1.16503,0.03
489,1.26278,2829.66,1.16503,0.03
490,1.26345,5281.98,1.16503,0.03
491,1.26251,893.149,1.16503,0.03
492,1.26224,1683.56,1.16503,0.03
493,1.26247,1015.03,1.16718,0.03
494,1.26397,2699.06,1.16718,0.03
495,1.26374,823.034,1.16718,0.03
496,1.26288,1686.75,1.16718,0.03
497,1.26001,787.433,1.16718,0.03
498,1.26044,1351.94,1.16933,0.03
499,1.25893,2324.25,1.16933,0.03
500,1.25792,1678.41,1.16933,0.03
501,1.25814,966.88,1.16933,0.03
502,1.25428,724.9,1.16933,0.03
503,1.25322,916.59,1.16933,0.03
504,1.25184,3395.81,1.16933,0.03
505,1.24998,1175.99,1.16933,0.03
506,1.25067,975.303,1.17148,0.03
507,1.252,4899.16,1.17148,0.03
508,1.25242,1386.77,1.17364,0.03
509,1.25106,856.833,1.17364,0.03
510,1.25258,1112.4,1.17364,0.03
511,1.2528,6207.46,1.1758,0.03
512,1.25451,33426.9,1.1758,0.03
513,1.25592,6256.82,1.17797,0.03
514,1.2539,678.439,1.17797,0.03
515,1.25625,1796.03,1.17797,0.03
516,1.25571,690.245,1.17797,0.03
517,1.25562,1469.9,1.17797,0.03
518,1.25477,1369.03,1.17797,0.03
519,1.25538,2003.29,1.18014,0.03
520,1.25487,11722.9,1.18014,0.03
521,1.25302,27954.5,1.18014,0.03
522,1.25171,825.874,1.18014,0.03
523,1.25156,1692.37,1.18014,0.03
524,1.25463,20766.3,1.18014,0.03
525,1.25561,6173.09,1.18231,0.03
526,1.25469,1337.98,1.18231,0.03
527,1.2555,1388.02,1.18231,0.03
528,1.25507,1269.19,1.18231,0.03
529,1.25318,4888.41,1.18231,0.03
530,1.25501,1092.55,1.18449,0.03
531,1.25429,871.946,1.18449,0.03
532,1.2559,1109.96,1.18449,0.03
533,1.25593,2820.3,1.18667,0.03
534,1.25543,13977.3,1.18667,0.03
535,1.25698,1564.2,1.18667,0.03
536,1.25582,730.171,1.18667,0.03
537,1.25681,72681.7,1.18886,0.03
538,1.25296,850.982,1.18886,0.03
539,1.25423,17728.1,1.18886,0.03
540,1.25438,2223.08,1.19105,0.03
541,1.25245,6301.86,1.19105,0.03
542,1.25241,3105.43,1.19105,0.03
543,1.25182,925.393,1.19105,0.03
544,1.2528,5774.81,1.19105,0.03
545,1.25388,3128.94,1.19324,0.03
546,1.25487,2557.45,1.19324,0.03
547,1.25278,1102.55,1.19324,0.03
548,1.25306,4789.62,1.19544,0.03
549,1.25361,2707.19,1.19544,0.03
550,1.25267,653.66,1.19544,0.03
551,1.25345,6432.05,1.19764,0.03
552,1.25491,4947.62,1.19764,0.03
553,1.25391,997.594,1.19764,0.03
554,1.25273,2742.06,1.19764,0.03
555,1.2538,1716.14,1.19985,0.03
556,1.25347,2082.79,1.19985,0.03
557,1.25114,702.221,1.19985,0.03
558,1.25152,927.62,1.19985,0.03
559,1.25023,2418.1,1.19985,0.03
560,1.24775,592.803,1.19985,0.03
561,1.24419,1992.47,1.19985,0.03
562,1.24148,796.042,1.19985,0.03
563,1.24204,1649.58,1.20206,0.03
564,1.24183,1624.18,1.20206,0.03
565,1.24012,2518.6,1.20206,0.03
566,1.24064,1511.37,1.20206,0.03
567,1.23836,543.213,1.20206,0.03
568,1.23902,2328.94,1.20427,0.03
569,1.24065,72681.7,1.20427,0.03
570,1.23852,771.359,1.20427,0.03
571,1.23564,583.475,1.20427,0.03
572,1.23767,2996.95,1.20649,0.03
573,1.23619,619.338,1.20649,0.03
574,1.23556,1529.98,1.20649,0.03
575,1.23213,552.947,1.20649,0.03
576,1.23076,1479.27,1.20649,0.03
577,1.22858,754.912,1.20649,0.03
578,1.22959,3908.92,1.20649,0.03
579,1.22866,2308.28,1.20649,0.03
580,1.22692,828.438,1.20649,0.03
581,1.22841,181768,1.20871,0.03
582,1.22601,713.549,1.20871,0.03
583,1.22388,835.023,1.20871,0.03
584,1.22303,542.058,1.20871,0.03
585,1.22506,36919.4,1.20871,0.03
586,1.22419,1134.53,1.20871,0.03
587,1.22491,1283.55,1.21094,0.03
588,1.22631,14251.3,1.21094,0.03
589,1.22985,242272,1.21317,0.03
590,1.23079,4138.21,1.21317,0.03
591,1.23022,2232.42,1.21317,0.03
592,1.22854,1043.16,1.21317,0.03
593,1.22977,1284.56,1.2154,0.03
594,1.2318,1571.74,1.2154,0.03
595,1.23217,821.343,1.21764,0.03
596,1.23191,4166.16,1.21764,0.03
597,1.22798,445.954,1.21764,0.03
598,1.22323,698.61,1.21764,0.03
599,1.22278,806.265,1.21764,0.03
600,1.22005,936.201,1.21764,0.03
601,1.22401,34610.4,1.21764,0.03
602,1.22067,7696.59,1.21764,0.03
603,1.21653,470.76,1.21764,0.03
604,1.21753,1147.93,1.21988,0.03
605,1.21855,1371.33,1.21988,0.03
606,1.21855,1705.47,1.22213,0.03
607,1.21825,2439.94,1.22213,0.03
608,1.21937,5486.41,1.22213,0.03
609,1.21934,984.137,1.22213,0.03
610,1.22103,5100.05,1.22438,0.03
611,1.21985,1528.96,1.22438,0.03
612,1.21772,683.428,1.22438,0.03
613,1.21852,6995.27,1.22438,0.03
614,1.2208,2553.21,1.22664,0.03
615,1.21972,6248,1.22664,0.03
616,1.21866,1213.86,1.22664,0.03
617,1.21851,1598.55,1.22664,0.03
618,1.21675,1486.02,1.22664,0.03
619,1.21893,2695.61,1.22664,0.03
620,1.21446,437.98,1.22664,0.03
