step,energy,beta,lambda,delta
0,1.52976,397.56,1,0.03
1,1.52795,2362.92,1,0.03
2,1.5256,5443.09,1,0.03
3,1.52366,20207.3,1,0.03
4,1.52226,6894.65,1,0.03
5,1.51923,5319.81,1,0.03
6,1.5179,2628.72,1,0.03
7,1.51689,2889.63,1,0.03
8,1.51514,1342.04,1,0.03
9,1.51362,2600.7,1,0.03
10,1.51284,10131.1,1,0.03
11,1.51105,42754,1,0.03
12,1.50991,2473.51,1,0.03
13,1.50796,2442.99,1,0.03
14,1.50695,3468.43,1,0.03
15,1.50539,16151.5,1,0.03
16,1.50368,9729.29,1,0.03
17,1.50229,4878.32,1,0.03
18,1.49949,1359.38,1,0.03
19,1.49643,2034.03,1,0.03
20,1.49424,1440.51,1,0.03
21,1.49273,12231.5,1,0.03
22,1.49168,4986.9,1,0.03
23,1.49133,3399.45,1,0.03
24,1.48848,4852.24,1,0.03
25,1.48742,3545.66,1,0.03
26,1.48534,1472.47,1,0.03
27,1.48311,4742.54,1,0.03
28,1.48195,1790.58,1,0.03
29,1.4805,2333.49,1,0.03
30,1.47635,1515.96,1,0.03
31,1.47615,2709.96,1,0.03
32,1.47577,3327.49,1,0.03
33,1.47376,2055.23,1,0.03
34,1.47133,1551.58,1,0.03
35,1.46966,8863.51,1,0.03
36,1.4688,2471.45,1,0.03
37,1.46658,1047.74,1,0.03
38,1.4637,1486.89,1,0.03
39,1.46351,8551.21,1,0.03
40,1.46033,3632.45,1,0.03
41,1.4592,1623.34,1,0.03
42,1.45855,10646.1,1,0.03
43,1.45572,40378.7,1,0.03
44,1.45531,4767.56,1,0.03
45,1.45454,1529.55,1,0.03
46,1.45282,2016.85,1,0.03
47,1.45321,7833.84,1,0.03
48,1.45278,15167.1,1,0.03
49,1.45077,1117.39,1,0.03
50,1.44858,878.499,1,0.03
51,1.44894,3550.59,1.00184,0.03
52,1.44828,3067.97,1.00184,0.03
53,1.44775,2571.74,1.00184,0.03
54,1.4474,3367.23,1.00184,0.03
55,1.44521,1404.28,1.00184,0.03
56,1.44472,2636.39,1.00184,0.03
57,1.44388,34610.5,1.00184,0.03
58,1.44325,4141.3,1.00184,0.03
59,1.44254,3388.12,1.00184,0.03
60,1.44213,5824.62,1.00184,0.03
61,1.44058,5592.44,1.00184,0.03
62,1.44044,181704,1.00184,0.03
63,1.43952,1844.89,1.00184,0.03
64,1.4386,4911.44,1.00184,0.03
65,1.43734,2538.09,1.00184,0.03
66,1.43702,2020.98,1.00184,0.03
67,1.43411,1805.67,1.00184,0.03
68,1.43191,1046.16,1.00184,0.03
69,1.43104,1833,1.00184,0.03
70,1.43002,13713.5,1.00184,0.03
71,1.43015,2437.21,1.00184,0.03
72,1.43034,8569.06,1.00369,0.03
73,1.42698,593.437,1.00369,0.03
74,1.42591,1486.74,1.00369,0.03
75,1.42356,13977.3,1.00369,0.03
76,1.42376,6547.93,1.00369,0.03
77,1.42288,2980.08,1.00369,0.03
78,1.42049,3265.42,1.00369,0.03
79,1.42085,8345.29,1.00554,0.03
80,1.4186,982.011,1.00554,0.03
81,1.41825,4352.63,1.00554,0.03
82,1.41673,4086.28,1.00554,0.03
83,1.41584,2693.48,1.00554,0.03
84,1.41601,10644.5,1.00554,0.03
85,1.41554,6825.75,1.00554,0.03
86,1.41506,2640.75,1.00554,0.03
87,1.41289,1123.25,1.00554,0.03
88,1.41207,2613.57,1.00554,0.03
89,1.41198,1551.77,1.00554,0.03
90,1.41205,4268.98,1.00739,0.03
91,1.41112,3579.48,1.00739,0.03
92,1.40989,3431.7,1.00739,0.03
93,1.40826,2435.94,1.00739,0.03
94,1.40925,2634.75,1.00739,0.03
95,1.40864,1822.06,1.00739,0.03
96,1.40752,3696.16,1.00739,0.03
97,1.4065,6656.12,1.00739,0.03
98,1.40454,1205.72,1.00739,0.03
99,1.40573,3491.96,1.00924,0.03
100,1.40389,3723.2,1.00924,0.03
101,1.40413,6659.95,1.00924,0.03
102,1.40288,1898.46,1.00924,0.03
103,1.40345,3415.04,1.0111,0.03
104,1.40058,778.294,1.0111,0.03
105,1.39912,1284.49,1.0111,0.03
106,1.40035,18354.6,1.0111,0.03
107,1.40021,2182.29,1.0111,0.03
108,1.4001,8357.31,1.0111,0.03
109,1.40022,1817.89,1.01297,0.03
110,1.40052,51925.6,1.01297,0.03
111,1.39729,2267.52,1.01297,0.03
112,1.39805,6067.3,1.01483,0.03
113,1.39795,4944.79,1.01483,0.03
114,1.39884,90852.2,1.01483,0.03
115,1.39752,14552.2,1.01483,0.03
116,1.39857,72681.7,1.0167,0.03
117,1.39826,4260.56,1.0167,0.03
118,1.398,2008.47,1.0167,0.03
119,1.39821,1714.86,1.0167,0.03
120,1.39662,1116.98,1.0167,0.03
121,1.39383,791.287,1.0167,0.03
122,1.39263,363409,1.0167,0.03
123,1.39315,4570.24,1.01857,0.03
124,1.39157,3849.98,1.01857,0.03
125,1.38901,976.692,1.01857,0.03
126,1.38721,1080.93,1.01857,0.03
127,1.38668,1309.08,1.01857,0.03
128,1.38662,1361.25,1.01857,0.03
129,1.38601,7409.15,1.01857,0.03
130,1.38526,1676.74,1.01857,0.03
131,1.3842,905.458,1.01857,0.03
132,1.38085,745.591,1.01857,0.03
133,1.3806,1792.51,1.01857,0.03
134,1.37866,1035.7,1.01857,0.03
135,1.37732,1482.52,1.01857,0.03
136,1.37673,3621.95,1.01857,0.03
137,1.37677,3514.64,1.01857,0.03
138,1.37509,34610.4,1.01857,0.03
139,1.37251,911.084,1.01857,0.03
140,1.371,1733.13,1.01857,0.03
141,1.37088,2371.31,1.01857,0.03
142,1.37091,2359.66,1.02045,0.03
143,1.37025,1475.72,1.02045,0.03
144,1.36981,2424.73,1.02045,0.03
145,1.36933,927.586,1.02045,0.03
146,1.36781,1024.7,1.02045,0.03
147,1.36603,1181.77,1.02045,0.03
148,1.36512,1328.07,1.02045,0.03
149,1.36471,2216.11,1.02045,0.03
150,1.36418,2785.69,1.02045,0.03
151,1.36261,908.282,1.02045,0.03
152,1.36186,1666.87,1.02045,0.03
153,1.36005,894.042,1.02045,0.03
154,1.35902,1305.81,1.02045,0.03
155,1.35561,585.998,1.02045,0.03
156,1.35558,1651.13,1.02045,0.03
157,1.35661,2154.29,1.02045,0.03
158,1.35588,13081,1.02045,0.03
159,1.3555,7296.6,1.02045,0.03
160,1.35707,1587.98,1.02233,0.03
161,1.3558,1396.13,1.02233,0.03
162,1.35534,4542.87,1.02233,0.03
163,1.35295,919.251,1.02233,0.03
164,1.3524,1621.01,1.02233,0.03
165,1.3526,1980.72,1.02233,0.03
166,1.35237,1695.29,1.02233,0.03
167,1.35014,908.426,1.02233,0.03
168,1.34979,6951.02,1.02233,0.03
169,1.34855,4194.7,1.02233,0.03
170,1.34748,6431.71,1.02233,0.03
171,1.34537,1026.08,1.02233,0.03
172,1.34542,6297.8,1.02421,0.03
173,1.345,7745.16,1.02421,0.03
174,1.34595,3664.63,1.02421,0.03
175,1.34562,7196.32,1.02421,0.03
176,1.34705,3627.53,1.0261,0.03
177,1.34571,2535.57,1.0261,0.03
178,1.34675,1558.8,1.0261,0.03
179,1.34503,859.543,1.0261,0.03
180,1.34431,3419.56,1.0261,0.03
181,1.3437,4724.31,1.0261,0.03
182,1.34498,4469.94,1.02799,0.03
183,1.34104,588.184,1.02799,0.03
184,1.33813,1622.89,1.02799,0.03
185,1.33901,1389.41,1.02799,0.03
186,1.3384,3319.96,1.02799,0.03
187,1.33716,1282.58,1.02799,0.03
188,1.33782,3103.66,1.02988,0.03
189,1.33494,1023.64,1.02988,0.03
190,1.33609,2165.26,1.02988,0.03
191,1.33753,1428.24,1.03178,0.03
192,1.33817,1390.65,1.03178,0.03
193,1.33646,1178.35,1.03178,0.03
194,1.33395,1335.44,1.03178,0.03
195,1.32902,684.485,1.03178,0.03
196,1.32671,3141.5,1.03178,0.03
197,1.32545,2786.18,1.03178,0.03
198,1.32429,1087.1,1.03178,0.03
199,1.32548,27954.5,1.03368,0.03
200,1.32279,602.388,1.03368,0.03
201,1.3233,3107.01,1.03368,0.03
202,1.32202,2047.72,1.03368,0.03
203,1.32061,2432.24,1.03368,0.03
204,1.3194,2131.28,1.03368,0.03
205,1.31795,2100.63,1.03368,0.03
206,1.31635,2909.7,1.03368,0.03
207,1.31446,726.814,1.03368,0.03
208,1.31466,29072.7,1.03558,0.03
209,1.31579,1512.31,1.03558,0.03
210,1.31158,462.726,1.03558,0.03
211,1.31011,4408.84,1.03558,0.03
212,1.31002,1539.57,1.03558,0.03
213,1.30931,1243.27,1.03558,0.03
214,1.30798,3594.32,1.03558,0.03
215,1.30842,40378.7,1.03749,0.03
216,1.30777,1337.16,1.03749,0.03
217,1.3045,363409,1.03749,0.03
218,1.30318,1111.65,1.03749,0.03
219,1.30184,1300.65,1.03749,0.03
220,1.30057,1127.94,1.03749,0.03
221,1.30022,1807.31,1.03749,0.03
222,1.29891,4432.64,1.03749,0.03
223,1.29849,1002.54,1.03749,0.03
224,1.29592,614.658,1.03749,0.03
225,1.29655,1266.14,1.03749,0.03
226,1.29878,8587.37,1.0394,0.03
227,1.29862,2347.79,1.0394,0.03
228,1.29734,1865.48,1.0394,0.03
229,1.29767,14536.7,1.0394,0.03
230,1.2958,1819.55,1.0394,0.03
231,1.29312,724.649,1.0394,0.03
232,1.29206,1130.69,1.0394,0.03
233,1.29214,986.43,1.04132,0.03
234,1.29033,635.192,1.04132,0.03
235,1.2921,3033.54,1.04132,0.03
236,1.29116,2524.87,1.04132,0.03
237,1.29022,1164.39,1.04132,0.03
238,1.28887,2448.01,1.04132,0.03
239,1.28923,1843.82,1.04324,0.03
240,1.2899,1967.13,1.04324,0.03
241,1.28633,587.554,1.04324,0.03
242,1.2849,880.908,1.04324,0.03
243,1.2833,686.049,1.04324,0.03
244,1.28381,7776.36,1.04516,0.03
245,1.28597,3000.25,1.04516,0.03
246,1.28741,7470.9,1.04708,0.03
247,1.28746,2986.97,1.04708,0.03
248,1.28605,1188.08,1.04708,0.03
249,1.28624,3032.88,1.04901,0.03
250,1.28531,665.169,1.04901,0.03
251,1.28491,3658.51,1.04901,0.03
252,1.28585,3291.62,1.04901,0.03
253,1.28722,6171.09,1.05094,0.03
254,1.28527,1148.4,1.05094,0.03
255,1.28465,2911.51,1.05094,0.03
256,1.28303,1122.99,1.05094,0.03
257,1.28323,8652.6,1.05094,0.03
258,1.28408,4330.94,1.05288,0.03
259,1.2831,1390.14,1.05288,0.03
260,1.28357,795.593,1.05288,0.03
261,1.28207,3014.32,1.05288,0.03
262,1.28151,1508.78,1.05288,0.03
263,1.28,605.932,1.05288,0.03
264,1.27858,1058.05,1.05288,0.03
265,1.27843,1825.62,1.05288,0.03
266,1.2796,4170.43,1.05482,0.03
267,1.27888,1200.3,1.05482,0.03
268,1.27729,1358.05,1.05482,0.03
269,1.27555,2873.2,1.05482,0.03
270,1.27573,5749.07,1.05482,0.03
271,1.27567,6560.67,1.05482,0.03
272,1.27473,2909.84,1.05482,0.03
273,1.27285,3212.36,1.05482,0.03
274,1.27368,3043.67,1.05676,0.03
275,1.27234,4500.86,1.05676,0.03
276,1.27228,3262.62,1.05676,0.03
277,1.27039,805.865,1.05676,0.03
278,1.27036,60568.1,1.05676,0.03
279,1.27065,363409,1.05676,0.03
280,1.27154,2364.59,1.05871,0.03
281,1.26934,2174.76,1.05871,0.03
282,1.27056,1238.77,1.05871,0.03
283,1.26968,1401.31,1.05871,0.03
284,1.2679,3629.94,1.05871,0.03
285,1.26463,748.494,1.05871,0.03
286,1.2671,5136.89,1.06066,0.03
287,1.26771,5928.2,1.06066,0.03
288,1.26625,787.473,1.06066,0.03
289,1.26543,1018.65,1.06066,0.03
290,1.26412,705.441,1.06066,0.03
291,1.26357,3993.79,1.06066,0.03
292,1.26418,2526.83,1.06261,0.03
293,1.26326,570.567,1.06261,0.03
294,1.26362,2630.97,1.06261,0.03
295,1.26361,8973.05,1.06261,0.03
296,1.26169,4434.21,1.06261,0.03
297,1.2605,1023.86,1.06261,0.03
298,1.26167,1998.55,1.06457,0.03
299,1.26059,8507.16,1.06457,0.03
300,1.25993,3542.81,1.06457,0.03
301,1.26063,5129.38,1.06457,0.03
302,1.2564,1063.35,1.06457,0.03
303,1.25774,9564.05,1.06653,0.03
304,1.25867,46292.1,1.06653,0.03
305,1.25937,1718.02,1.0685,0.03
306,1.25857,901.894,1.0685,0.03
307,1.26083,2939.44,1.0685,0.03
308,1.25986,1627.77,1.0685,0.03
309,1.25566,1482.3,1.0685,0.03
310,1.25778,8589.73,1.07046,0.03
311,1.25722,5509.89,1.07046,0.03
312,1.25874,2828.33,1.07046,0.03
313,1.25901,4201.7,1.07244,0.03
314,1.25945,1600.74,1.07244,0.03
315,1.25876,670.168,1.07244,0.03
316,1.25756,991.67,1.07244,0.03
317,1.25691,1108.17,1.07244,0.03
318,1.25519,603.284,1.07244,0.03
319,1.25481,641.133,1.07244,0.03
320,1.25537,2465.55,1.07441,0.03
321,1.25075,422.426,1.07441,0.03
322,1.24933,1253.1,1.07441,0.03
323,1.25077,1580.58,1.07441,0.03
324,1.25193,1110.84,1.07639,0.03
325,1.25072,1096.92,1.07639,0.03
326,1.25027,1219.99,1.07639,0.03
327,1.24978,9691.82,1.07639,0.03
328,1.24718,496.788,1.07639,0.03
329,1.24571,683.218,1.07639,0.03
330,1.24737,2781.7,1.07639,0.03
331,1.24567,554.846,1.07639,0.03
332,1.24532,1249.32,1.07639,0.03
333,1.24281,712.161,1.07639,0.03
334,1.23993,1262.28,1.07639,0.03
335,1.24132,998.878,1.07837,0.03
336,1.24095,923.477,1.07837,0.03
337,1.23955,1909.29,1.07837,0.03
338,1.23941,1163.44,1.07837,0.03
339,1.24189,12114,1.07837,0.03
340,1.23788,1106.02,1.07837,0.03
341,1.23618,3024.12,1.07837,0.03
342,1.23526,1965.99,1.07837,0.03
343,1.23348,1190.31,1.07837,0.03
344,1.23313,1978.96,1.07837,0.03
345,1.23219,1382.14,1.07837,0.03
346,1.23141,3170.17,1.07837,0.03
347,1.23232,26699.3,1.08036,0.03
348,1.2311,16518.7,1.08036,0.03
349,1.22814,1521.72,1.08036,0.03
350,1.23108,4409.42,1.08036,0.03
351,1.23128,762.075,1.08235,0.03
352,1.2318,3862.65,1.08235,0.03
353,1.23117,724.134,1.08235,0.03
354,1.23063,1003.63,1.08235,0.03
355,1.22705,445.078,1.08235,0.03
356,1.22421,608.019,1.08235,0.03
357,1.22463,2931.15,1.08434,0.03
358,1.22457,1814.42,1.08434,0.03
359,1.22479,735.168,1.08434,0.03
360,1.224,763.127,1.08434,0.03
361,1.22533,1931.94,1.08634,0.03
362,1.22266,931.614,1.08634,0.03
363,1.2239,971.838,1.08634,0.03
364,1.2276,2812.94,1.08834,0.03
365,1.22818,2025.91,1.08834,0.03
366,1.22906,15142,1.09035,0.03
367,1.22891,1836.43,1.09035,0.03
368,1.22861,4461.85,1.09035,0.03
369,1.22905,2227.43,1.09035,0.03
370,1.2309,66074.3,1.09235,0.03
371,1.23088,2526.96,1.09235,0.03
372,1.23153,882.25,1.09235,0.03
373,1.23071,3490.13,1.09235,0.03
374,1.23001,1707.99,1.09235,0.03
375,1.22716,1087.88,1.09235,0.03
376,1.22462,938.066,1.09235,0.03
377,1.22206,834.222,1.09235,0.03
378,1.22001,1910.29,1.09235,0.03
379,1.21951,3512.92,1.09235,0.03
380,1.2219,4257.75,1.09437,0.03
381,1.22384,13964.3,1.09437,0.03
382,1.21983,644.717,1.09437,0.03
383,1.22189,90852.2,1.09638,0.03
384,1.22327,1505.12,1.09638,0.03
385,1.22462,1618.36,1.0984,0.03
386,1.22148,609.25,1.0984,0.03
387,1.22188,809.183,1.0984,0.03
388,1.21958,748.229,1.0984,0.03
389,1.22092,5053.9,1.10043,0.03
390,1.22198,2501.91,1.10043,0.03
391,1.22445,1536.52,1.10245,0.03
392,1.22199,1145.55,1.10245,0.03
393,1.2216,1161.57,1.10245,0.03
394,1.22043,2427.01,1.10245,0.03
395,1.21981,2370.35,1.10245,0.03
396,1.21873,800.506,1.10245,0.03
397,1.2197,1570.39,1.10245,0.03
398,1.21902,1539.3,1.10245,0.03
399,1.21894,1453.75,1.10245,0.03
400,1.21777,1285.6,1.10245,0.03
401,1.2173,2054.25,1.10245,0.03
402,1.21385,517.804,1.10245,0.03
403,1.21333,6053.1,1.10245,0.03
404,1.21012,633.204,1.10245,0.03
405,1.21048,3772.93,1.10448,0.03
406,1.20725,1342.42,1.10448,0.03
407,1.21017,38253.5,1.10448,0.03
408,1.21091,1058.96,1.10652,0.03
409,1.21068,713.539,1.10652,0.03
410,1.20967,551.304,1.10652,0.03
411,1.20875,1573.79,1.10652,0.03
412,1.2069,1679.16,1.10652,0.03
413,1.208,3431.95,1.10652,0.03
414,1.20947,1248.44,1.10856,0.03
415,1.20993,1524.73,1.10856,0.03
416,1.20738,750.138,1.10856,0.03
417,1.20836,2523.63,1.1106,0.03
418,1.2084,5699.71,1.1106,0.03
419,1.20853,2094.48,1.11264,0.03
420,1.20939,1830.88,1.11264,0.03
421,1.21039,7987.02,1.11469,0.03
422,1.20937,916.911,1.11469,0.03
423,1.2091,718.804,1.11469,0.03
424,1.20851,1422.31,1.11469,0.03
425,1.2066,2507.5,1.11469,0.03
426,1.2008,468.249,1.11469,0.03
427,1.20057,1036.73,1.11469,0.03
428,1.20198,1370.83,1.11469,0.03
429,1.20164,2344.28,1.11469,0.03
430,1.20328,1648.64,1.11675,0.03
431,1.20636,1917.97,1.11675,0.03
432,1.20691,2401.31,1.1188,0.03
433,1.20551,1026.85,1.1188,0.03
434,1.20368,926.866,1.1188,0.03
435,1.2022,576.176,1.1188,0.03
436,1.20085,757.357,1.1188,0.03
437,1.2002,718.356,1.1188,0.03
438,1.19892,537.187,1.1188,0.03
439,1.20052,1964.81,1.1188,0.03
440,1.20197,1925.05,1.12086,0.03
441,1.20228,5047.36,1.12086,0.03
442,1.20326,1634.81,1.12293,0.03
443,1.19818,403.852,1.12293,0.03
444,1.19931,2110.57,1.12293,0.03
445,1.20016,783.875,1.125,0.03
446,1.19844,764.18,1.125,0.03
447,1.1993,1208.37,1.125,0.03
448,1.19998,1951.86,1.12707,0.03
449,1.19653,1208.08,1.12707,0.03
450,1.19184,482.363,1.12707,0.03
451,1.19049,1241.76,1.12707,0.03
452,1.19004,1029.55,1.12707,0.03
453,1.18985,7350.95,1.12707,0.03
454,1.18872,1239.97,1.12707,0.03
455,1.18743,762.806,1.12707,0.03
456,1.18874,1078.88,1.12707,0.03
457,1.18815,8166.49,1.12707,0.03
458,1.1879,737.369,1.12707,0.03
459,1.19091,1123.03,1.12915,0.03
460,1.1903,51915.5,1.12915,0.03
461,1.19082,3251.76,1.12915,0.03
462,1.19251,4847.93,1.13123,0.03
463,1.1922,866.327,1.13123,0.03
464,1.192,1541.41,1.13123,0.03
465,1.19324,4686.47,1.13123,0.03
466,1.19523,6737.61,1.13331,0.03
467,1.19521,1093.73,1.13331,0.03
468,1.19396,700.933,1.13331,0.03
469,1.19463,2460.62,1.13331,0.03
470,1.19423,3423.48,1.13331,0.03
471,1.19382,789.038,1.13331,0.03
472,1.19454,2941.46,1.1354,0.03
473,1.19653,6420.43,1.1354,0.03
474,1.19948,1475.38,1.13749,0.03
475,1.19828,1023.8,1.13749,0.03
476,1.19824,873.288,1.13749,0.03
477,1.19867,1164.21,1.13749,0.03
478,1.19782,1647.81,1.13749,0.03
479,1.19557,806.843,1.13749,0.03
480,1.19223,575.432,1.13749,0.03
481,1.19235,6213.85,1.13958,0.03
482,1.1938,2001.1,1.13958,0.03
483,1.19514,1963.81,1.14168,0.03
484,1.19495,2076.14,1.14168,0.03
485,1.19569,2224.97,1.14168,0.03
486,1.19631,1798.57,1.14379,0.03
487,1.19724,11067.5,1.14379,0.03
488,1.19914,1833.19,1.14589,0.03
489,1.19902,3683.81,1.14589,0.03
490,1.19784,870.446,1.14589,0.03
491,1.19681,3872.7,1.14589,0.03
492,1.19374,735.632,1.14589,0.03
493,1.19296,758.41,1.14589,0.03
494,1.194,1735.81,1.14589,0.03
495,1.19378,5383.91,1.14589,0.03
496,1.19374,634.848,1.14589,0.03
497,1.19373,1521.53,1.14589,0.03
498,1.19529,1109.52,1.148,0.03
499,1.19286,501.859,1.148,0.03
500,1.19099,699.433,1.148,0.03
501,1.18979,775.777,1.148,0.03
502,1.1886,1766.94,1.148,0.03
503,1.18722,1044.88,1.148,0.03
504,1.1877,964.844,1.148,0.03
505,1.18965,1079.91,1.15012,0.03
506,1.19122,2461.85,1.15012,0.03
507,1.18867,485.345,1.15012,0.03
508,1.18641,961.69,1.15012,0.03
509,1.18559,1406.86,1.15012,0.03
510,1.1837,981.131,1.15012,0.03
511,1.18346,563.408,1.15012,0.03
512,1.18487,3001.24,1.15224,0.03
513,1.18515,546.156,1.15224,0.03
514,1.18323,887.483,1.15224,0.03
515,1.18294,3707.39,1.15224,0.03
516,1.17775,532.495,1.15224,0.03
517,1.17686,432.187,1.15224,0.03
518,1.17712,1549.11,1.15436,0.03
519,1.17946,2453.14,1.15436,0.03
520,1.1777,908.328,1.15436,0.03
521,1.17719,713.852,1.15436,0.03
522,1.17927,2424.69,1.15649,0.03
523,1.18147,5328.58,1.15649,0.03
524,1.18219,29072.7,1.15862,0.03
525,1.18001,620.979,1.15862,0.03
526,1.18016,780.522,1.15862,0.03
527,1.17602,3106.06,1.15862,0.03
528,1.18044,25180.2,1.16075,0.03
529,1.18297,3606.35,1.16075,0.03
530,1.18227,696.137,1.16075,0.03
531,1.17981,530.321,1.16075,0.03
532,1.1777,910.057,1.16075,0.03
533,1.17804,3204.62,1.16289,0.03
534,1.17428,587.334,1.16289,0.03
535,1.17489,1540.42,1.16289,0.03
536,1.17435,3047.13,1.16289,0.03
537,1.1757,12531.3,1.16503,0.03
538,1.17406,556.132,1.16503,0.03
539,1.17416,1084.94,1.16503,0.03
540,1.17405,846.772,1.16503,0.03
541,1.17385,9691.67,1.16503,0.03
542,1.17632,1721.97,1.16718,0.03
543,1.17519,771.866,1.16718,0.03
544,1.17869,13713.6,1.16718,0.03
545,1.17995,770.481,1.16933,0.03
546,1.17893,576.247,1.16933,0.03
547,1.17758,1120.61,1.16933,0.03
548,1.17745,5192.42,1.16933,0.03
549,1.17728,935.461,1.16933,0.03
550,1.17777,1135.73,1.16933,0.03
551,1.17971,1807.9,1.17148,0.03
552,1.17929,2371.82,1.17148,0.03
553,1.18096,90852.2,1.17148,0.03
554,1.18281,3635.23,1.17364,0.03
555,1.1801,693.297,1.17364,0.03
556,1.17739,871.187,1.17364,0.03
557,1.17461,1713.42,1.17364,0.03
558,1.17496,3035.87,1.17364,0.03
559,1.17346,2717.18,1.17364,0.03
560,1.17449,1403.27,1.1758,0.03
561,1.17398,1623.82,1.1758,0.03
562,1.17366,1269.91,1.1758,0.03
563,1.1679,519.114,1.1758,0.03
564,1.16697,5228.9,1.1758,0.03
565,1.16775,782.547,1.1758,0.03
566,1.16715,20766.2,1.1758,0.03
567,1.16438,713.239,1.1758,0.03
568,1.16534,2329.81,1.17797,0.03
569,1.16363,3483.01,1.17797,0.03
570,1.16539,3910.46,1.17797,0.03
571,1.16615,8166.75,1.18014,0.03
572,1.16782,1229.65,1.18014,0.03
573,1.16874,1483.89,1.18231,0.03
574,1.16992,3368.52,1.18231,0.03
575,1.16875,5768.48,1.18231,0.03
576,1.16964,6320.24,1.18449,0.03
577,1.17011,1395.36,1.18449,0.03
578,1.17334,1184.45,1.18667,0.03
579,1.17532,2016.94,1.18667,0.03
580,1.17786,2294.8,1.18886,0.03
581,1.17864,2194.45,1.18886,0.03
582,1.17857,913.103,1.18886,0.03
583,1.17702,2376.12,1.18886,0.03
584,1.17746,1166.26,1.19105,0.03
585,1.1815,2924.66,1.19105,0.03
586,1.18009,640.232,1.19105,0.03
587,1.18027,862.664,1.19324,0.03
588,1.18161,3065.97,1.19324,0.03
589,1.18119,726817,1.19324,0.03
590,1.17969,750.767,1.19324,0.03
591,1.18355,2993.67,1.19544,0.03
592,1.18204,573.925,1.19544,0.03
593,1.18446,3306.63,1.19544,0.03
594,1.18354,1234.93,1.19544,0.03
595,1.18379,6504.57,1.19764,0.03
596,1.18365,1734.46,1.19764,0.03
597,1.18536,943.3,1.19764,0.03
598,1.18561,4260.22,1.19985,0.03
599,1.18461,648.644,1.19985,0.03
600,1.18427,1608.11,1.19985,0.03
601,1.18479,28321.5,1.19985,0.03
602,1.18142,796.672,1.19985,0.03
603,1.18093,3538.94,1.19985,0.03
604,1.17791,1022.83,1.19985,0.03
605,1.17765,1682.58,1.19985,0.03
606,1.17457,503.856,1.19985,0.03
607,1.17126,1213.14,1.19985,0.03
608,1.16917,841.601,1.19985,0.03
609,1.16726,692.018,1.19985,0.03
610,1.16553,844.948,1.19985,0.03
611,1.16384,920.347,1.19985,0.03
612,1.16408,20607,1.20206,0.03
613,1.16354,1043.2,1.20206,0.03
614,1.164,950.495,1.20206,0.03
615,1.16269,1397.46,1.20206,0.03
616,1.16043,1132.5,1.20206,0.03
617,1.15834,682.407,1.20206,0.03
618,1.15609,808.675,1.20206,0.03
619,1.15686,3322.67,1.20427,0.03
620,1.1584,1281.92,1.20427,0.03
621,1.15612,1327.15,1.20427,0.03
622,1.16024,7590.78,1.20649,0.03
623,1.16213,1284.67,1.20649,0.03
