step,energy,beta,lambda,delta
0,1.51764,181.36,1,0.03
1,1.5154,9944.5,1,0.03
2,1.51325,1728.31,1,0.03
3,1.51153,27955.8,1,0.03
4,1.50923,1865.85,1,0.03
5,1.50744,2283.62,1,0.03
6,1.50669,38253.5,1,0.03
7,1.50462,2553.48,1,0.03
8,1.50244,2356.02,1,0.03
9,1.50217,12253.5,1,0.03
10,1.50092,2760.84,1,0.03
11,1.50032,18213,1,0.03
12,1.49953,2391.95,1,0.03
13,1.49798,3726.05,1,0.03
14,1.49718,3517.49,1,0.03
15,1.49512,3144.24,1,0.03
16,1.49349,2714.2,1,0.03
17,1.49232,2912.29,1,0.03
18,1.49159,1797.43,1,0.03
19,1.49074,1889.18,1,0.03
20,1.4895,11735.1,1,0.03
21,1.48847,17544.1,1,0.03
22,1.488,42754,1,0.03
23,1.48586,2171.72,1,0.03
24,1.48388,1167.78,1,0.03
25,1.48185,38253.5,1,0.03
26,1.48107,6848.88,1,0.03
27,1.4799,3111.37,1,0.03
28,1.47707,1937.67,1,0.03
29,1.47559,38253.5,1,0.03
30,1.47534,4946.53,1,0.03
31,1.47266,1412.57,1,0.03
32,1.4701,1944.98,1,0.03
33,1.46762,4201.68,1,0.03
34,1.46528,1656.1,1,0.03
35,1.4628,1143.61,1,0.03
36,1.46064,1370.91,1,0.03
37,1.46013,1828.28,1,0.03
38,1.45854,1872.17,1,0.03
39,1.45797,8388.54,1,0.03
40,1.45761,2047.56,1,0.03
41,1.45606,1777.53,1,0.03
42,1.45501,2206.14,1,0.03
43,1.45397,1361.54,1,0.03
44,1.45274,2380.51,1,0.03
45,1.45157,2541.11,1,0.03
46,1.44925,1585.61,1,0.03
47,1.44754,8165.66,1,0.03
48,1.44645,2877.82,1,0.03
49,1.44387,1680.84,1,0.03
50,1.44393,29073.7,1,0.03
51,1.4421,72681.7,1,0.03
52,1.44086,40382,1,0.03
53,1.43982,4533.35,1,0.03
54,1.43888,2864.02,1,0.03
55,1.43868,13199.3,1,0.03
56,1.43884,4466.01,1.00184,0.03
57,1.43704,9085.49,1.00184,0.03
58,1.4344,1292.95,1.00184,0.03
59,1.43326,1728.39,1.00184,0.03
60,1.43358,4584.12,1.00184,0.03
61,1.43362,1569.42,1.00369,0.03
62,1.43096,2206.93,1.00369,0.03
63,1.42821,894.131,1.00369,0.03
64,1.42893,4231.17,1.00369,0.03
65,1.42695,1498.06,1.00369,0.03
66,1.42433,692.4,1.00369,0.03
67,1.42335,1203.7,1.00369,0.03
68,1.42202,6806.37,1.00369,0.03
69,1.4205,1698.08,1.00369,0.03
70,1.41981,1890.15,1.00369,0.03
71,1.42072,4473.37,1.00554,0.03
72,1.42108,3312.09,1.00554,0.03
73,1.41991,1493.71,1.00554,0.03
74,1.41954,8305.28,1.00554,0.03
75,1.41825,3530.57,1.00554,0.03
76,1.4176,1701.48,1.00554,0.03
77,1.41691,2553.42,1.00554,0.03
78,1.41514,1424.94,1.00554,0.03
79,1.41368,1074.26,1.00554,0.03
80,1.41203,2415.96,1.00554,0.03
81,1.41028,964.498,1.00554,0.03
82,1.41047,2093.92,1.00739,0.03
83,1.40926,1142.36,1.00739,0.03
84,1.40847,4140.21,1.00739,0.03
85,1.40714,12532.1,1.00739,0.03
86,1.40677,11731.1,1.00739,0.03
87,1.40608,2609.54,1.00739,0.03
88,1.40531,1124.42,1.00739,0.03
89,1.40567,3091.58,1.00739,0.03
90,1.40464,3217.74,1.00739,0.03
91,1.40307,18357.4,1.00739,0.03
92,1.40172,2095.89,1.00739,0.03
93,1.4006,12113.6,1.00739,0.03
94,1.39964,2668.83,1.00739,0.03
95,1.40077,2249.11,1.00924,0.03
96,1.39951,1244.64,1.00924,0.03
97,1.39832,1295.85,1.00924,0.03
98,1.39699,13076.4,1.00924,0.03
99,1.39644,5372.8,1.00924,0.03
100,1.39587,145363,1.00924,0.03
101,1.39499,2081.44,1.00924,0.03
102,1.39463,2710.67,1.00924,0.03
103,1.39302,1432.18,1.00924,0.03
104,1.39324,12813.3,1.00924,0.03
105,1.38939,555.919,1.00924,0.03
106,1.38954,6179.98,1.0111,0.03
107,1.38795,859.914,1.0111,0.03
108,1.38897,3610.11,1.0111,0.03
109,1.38819,1709.66,1.0111,0.03
110,1.38797,1686.96,1.0111,0.03
111,1.38723,1787.19,1.0111,0.03
112,1.38715,66133.8,1.0111,0.03
113,1.38728,11721,1.01297,0.03
114,1.38868,2022.97,1.01297,0.03
115,1.38773,7341.88,1.01297,0.03
116,1.3876,3402.82,1.01297,0.03
117,1.3865,1755.68,1.01297,0.03
118,1.38692,1947.96,1.01483,0.03
119,1.38616,1961.85,1.01483,0.03
120,1.38488,3077.35,1.01483,0.03
121,1.38419,2037.86,1.01483,0.03
122,1.38331,6459.31,1.01483,0.03
123,1.3816,1298.93,1.01483,0.03
124,1.38326,34819.8,1.01483,0.03
125,1.38401,1920.89,1.0167,0.03
126,1.38203,691.012,1.0167,0.03
127,1.38278,12956.6,1.0167,0.03
128,1.38428,30284.5,1.01857,0.03
129,1.38398,2625.56,1.01857,0.03
130,1.38219,1099.23,1.01857,0.03
131,1.38194,11722.9,1.01857,0.03
132,1.38046,2961.24,1.01857,0.03
133,1.37993,6162.55,1.01857,0.03
134,1.37789,1252.41,1.01857,0.03
135,1.37643,1131.3,1.01857,0.03
136,1.37545,1267.75,1.01857,0.03
137,1.37439,1603.88,1.01857,0.03
138,1.376,2279.94,1.01857,0.03
139,1.37271,1141.54,1.01857,0.03
140,1.37222,767.867,1.01857,0.03
141,1.3715,4044.18,1.01857,0.03
142,1.37081,34610.4,1.01857,0.03
143,1.3708,2710.16,1.01857,0.03
144,1.3711,1999.05,1.02045,0.03
145,1.37117,4336.28,1.02045,0.03
146,1.3707,1440.62,1.02045,0.03
147,1.3712,3340.96,1.02233,0.03
148,1.37062,2413.05,1.02233,0.03
149,1.36948,1435.99,1.02233,0.03
150,1.36845,1741.69,1.02233,0.03
151,1.36821,12114.8,1.02233,0.03
152,1.36853,2015.44,1.02233,0.03
153,1.36921,3552.68,1.02421,0.03
154,1.36811,2879.12,1.02421,0.03
155,1.36767,902.438,1.02421,0.03
156,1.36753,20766.2,1.02421,0.03
157,1.36943,2960.46,1.02421,0.03
158,1.36922,1677.21,1.02421,0.03
159,1.36922,7739.48,1.0261,0.03
160,1.36662,1841.4,1.0261,0.03
161,1.36637,2601.1,1.0261,0.03
162,1.36696,1736.79,1.0261,0.03
163,1.36633,1848.7,1.0261,0.03
164,1.36457,904.367,1.0261,0.03
165,1.363,1172.63,1.0261,0.03
166,1.36439,4355.34,1.02799,0.03
167,1.36275,910.731,1.02799,0.03
168,1.36144,752.447,1.02799,0.03
169,1.36152,1592.59,1.02799,0.03
170,1.35946,1073.4,1.02799,0.03
171,1.35658,961.996,1.02799,0.03
172,1.35806,2115.96,1.02988,0.03
173,1.35824,7485.29,1.02988,0.03
174,1.35695,1274.01,1.02988,0.03
175,1.35489,1116.37,1.02988,0.03
176,1.35521,9289.35,1.03178,0.03
177,1.3528,1123.44,1.03178,0.03
178,1.35216,1825.68,1.03178,0.03
179,1.35273,15926.6,1.03178,0.03
180,1.3522,3895.37,1.03178,0.03
181,1.34986,3076.18,1.03178,0.03
182,1.34679,1509.3,1.03178,0.03
183,1.34528,938.342,1.03178,0.03
184,1.3437,791.236,1.03178,0.03
185,1.3419,1564.86,1.03178,0.03
186,1.34149,2970.69,1.03178,0.03
187,1.34143,22427.5,1.03178,0.03
188,1.34181,2883.26,1.03368,0.03
189,1.34054,3586.52,1.03368,0.03
190,1.34123,3063.83,1.03368,0.03
191,1.33908,666.699,1.03368,0.03
192,1.33851,2404.54,1.03368,0.03
193,1.33616,1049.9,1.03368,0.03
194,1.33666,1139.76,1.03558,0.03
195,1.3364,2174.47,1.03558,0.03
196,1.33484,2869.33,1.03558,0.03
197,1.3337,1123,1.03558,0.03
198,1.33574,4140.33,1.03558,0.03
199,1.33523,5962.01,1.03558,0.03
200,1.33573,1738.05,1.03749,0.03
201,1.33288,2898.09,1.03749,0.03
202,1.33455,12453.8,1.03749,0.03
203,1.33432,9542.88,1.03749,0.03
204,1.33457,2158.96,1.0394,0.03
205,1.3344,1651.87,1.0394,0.03
206,1.33479,2567.39,1.0394,0.03
207,1.33434,1422.82,1.0394,0.03
208,1.33504,1486.74,1.04132,0.03
209,1.33393,2036.77,1.04132,0.03
210,1.33481,8060.59,1.04132,0.03
211,1.33311,866.966,1.04132,0.03
212,1.33236,1348.68,1.04132,0.03
213,1.32963,1073.55,1.04132,0.03
214,1.32946,2126.46,1.04132,0.03
215,1.32791,795.242,1.04132,0.03
216,1.32895,8451.37,1.04324,0.03
217,1.3279,867.098,1.04324,0.03
218,1.32818,1397.12,1.04324,0.03
219,1.32661,860.181,1.04324,0.03
220,1.32919,8406.99,1.04516,0.03
221,1.32736,1265.32,1.04516,0.03
222,1.3273,1201.41,1.04516,0.03
223,1.32547,2174.7,1.04516,0.03
224,1.32491,1391.9,1.04516,0.03
225,1.32273,1434.55,1.04516,0.03
226,1.32146,1279.86,1.04516,0.03
227,1.321,3094.03,1.04516,0.03
228,1.32178,11614.8,1.04516,0.03
229,1.32208,12751.4,1.04708,0.03
230,1.31939,972.452,1.04708,0.03
231,1.31855,945.948,1.04708,0.03
232,1.31652,978.365,1.04708,0.03
233,1.31804,4784.99,1.04708,0.03
234,1.31639,1099.98,1.04708,0.03
235,1.31647,4312.05,1.04901,0.03
236,1.31458,2568.39,1.04901,0.03
237,1.31436,1600.64,1.04901,0.03
238,1.31108,1332.94,1.04901,0.03
239,1.31054,1938.98,1.04901,0.03
240,1.30946,1574.53,1.04901,0.03
241,1.30988,2085.33,1.04901,0.03
242,1.31009,17727.3,1.05094,0.03
243,1.30995,1046.41,1.05094,0.03
244,1.3089,1870.87,1.05094,0.03
245,1.30458,919.789,1.05094,0.03
246,1.30386,1293.82,1.05094,0.03
247,1.30452,995.069,1.05094,0.03
248,1.30637,2931.49,1.05288,0.03
249,1.30641,1432.68,1.05288,0.03
250,1.30462,1571.17,1.05288,0.03
251,1.30522,9085.22,1.05482,0.03
252,1.30235,593.835,1.05482,0.03
253,1.30262,2154.06,1.05482,0.03
254,1.30144,14834.7,1.05482,0.03
255,1.29801,6005.49,1.05482,0.03
256,1.2948,1158.34,1.05482,0.03
257,1.29596,5198.86,1.05676,0.03
258,1.29363,5814.6,1.05676,0.03
259,1.29318,2463.05,1.05676,0.03
260,1.29344,12653.1,1.05676,0.03
261,1.29108,3207.51,1.05676,0.03
262,1.28905,2597.88,1.05676,0.03
263,1.2894,19651,1.05871,0.03
264,1.29153,2559.84,1.05871,0.03
265,1.29135,5698.57,1.05871,0.03
266,1.29175,4440,1.06066,0.03
267,1.29221,4071.2,1.06066,0.03
268,1.2917,1829.87,1.06066,0.03
269,1.28991,1039.26,1.06066,0.03
270,1.29014,1354.48,1.06261,0.03
271,1.28947,5124.48,1.06261,0.03
272,1.28772,1243.26,1.06261,0.03
273,1.28793,1606.77,1.06261,0.03
274,1.2871,1892.34,1.06261,0.03
275,1.28604,794.463,1.06261,0.03
276,1.28669,1333.95,1.06457,0.03
277,1.28711,1601.42,1.06457,0.03
278,1.28869,6624.74,1.06653,0.03
279,1.28859,1758.65,1.06653,0.03
280,1.28783,90852.2,1.06653,0.03
281,1.2882,2581.7,1.06653,0.03
282,1.28604,958.286,1.06653,0.03
283,1.28501,1833.16,1.06653,0.03
284,1.28463,13977.3,1.06653,0.03
285,1.28464,1800.28,1.0685,0.03
286,1.2838,9565.04,1.0685,0.03
287,1.28527,1708.61,1.0685,0.03
288,1.28383,1100.78,1.0685,0.03
289,1.27848,581.49,1.0685,0.03
290,1.28088,18636.4,1.07046,0.03
291,1.28153,3299,1.07046,0.03
292,1.27882,1166.13,1.07046,0.03
293,1.2754,687.618,1.07046,0.03
294,1.27391,699.266,1.07046,0.03
295,1.27315,809.138,1.07046,0.03
296,1.27107,901.375,1.07046,0.03
297,1.27019,1391.2,1.07046,0.03
298,1.26998,10387.3,1.07046,0.03
299,1.26996,121136,1.07046,0.03
300,1.27199,2002.49,1.07244,0.03
301,1.27173,1154.46,1.07244,0.03
302,1.26989,768.343,1.07244,0.03
303,1.2689,10094.7,1.07244,0.03
304,1.26894,14267.8,1.07244,0.03
305,1.26681,33037.2,1.07244,0.03
306,1.26428,498.741,1.07244,0.03
307,1.26196,873.355,1.07244,0.03
308,1.26296,90852.2,1.07441,0.03
309,1.26423,996.529,1.07441,0.03
310,1.26375,1665.38,1.07441,0.03
311,1.26326,3187.85,1.07441,0.03
312,1.26263,740.096,1.07441,0.03
313,1.26239,2730.39,1.07441,0.03
314,1.26268,3539.17,1.07639,0.03
315,1.26526,2351.08,1.07639,0.03
316,1.26695,3159.54,1.07837,0.03
317,1.26619,1473.85,1.07837,0.03
318,1.26645,3038.14,1.07837,0.03
319,1.26372,853.646,1.07837,0.03
320,1.26316,1040.14,1.07837,0.03
321,1.26235,6875.78,1.07837,0.03
322,1.2603,722.453,1.07837,0.03
323,1.2615,1639.69,1.08036,0.03
324,1.26129,5861.43,1.08036,0.03
325,1.26216,2533.13,1.08036,0.03
326,1.26214,623.606,1.08036,0.03
327,1.26449,2266.71,1.08235,0.03
328,1.26302,1593.2,1.08235,0.03
329,1.26223,717.054,1.08235,0.03
330,1.26101,4153.06,1.08235,0.03
331,1.26087,5168.63,1.08235,0.03
332,1.25941,1128.86,1.08235,0.03
333,1.26131,1105.19,1.08235,0.03
334,1.26071,2353.92,1.08235,0.03
335,1.2605,1822.99,1.08235,0.03
336,1.26074,4673.39,1.08434,0.03
337,1.25636,581.713,1.08434,0.03
338,1.25764,3997,1.08434,0.03
339,1.26004,2432.41,1.08634,0.03
340,1.2606,26608.2,1.08634,0.03
341,1.26197,1308.4,1.08834,0.03
342,1.26061,1464.69,1.08834,0.03
343,1.25909,804.957,1.08834,0.03
344,1.25668,812.848,1.08834,0.03
345,1.25572,2109.51,1.08834,0.03
346,1.25523,674.677,1.08834,0.03
347,1.25617,1021.16,1.08834,0.03
348,1.25594,1621.01,1.08834,0.03
349,1.25506,3222.23,1.08834,0.03
350,1.25578,1301.82,1.09035,0.03
351,1.25576,3392.34,1.09035,0.03
352,1.25605,1479.76,1.09035,0.03
353,1.2551,1265.25,1.09035,0.03
354,1.25689,1813.3,1.09235,0.03
355,1.25733,14536.3,1.09235,0.03
356,1.25438,837.693,1.09235,0.03
357,1.2542,1049.93,1.09235,0.03
358,1.25477,1867.04,1.09437,0.03
359,1.25358,1914.91,1.09437,0.03
360,1.25271,1608.6,1.09437,0.03
361,1.24967,598.618,1.09437,0.03
362,1.24891,5532.16,1.09437,0.03
363,1.25042,2100.55,1.09437,0.03
364,1.24918,948.103,1.09437,0.03
365,1.24919,1462.29,1.09638,0.03
366,1.2486,826.91,1.09638,0.03
367,1.24595,623.908,1.09638,0.03
368,1.24595,3217.83,1.09638,0.03
369,1.24701,1307.38,1.09638,0.03
370,1.24734,4727.22,1.0984,0.03
371,1.24626,1042.89,1.0984,0.03
372,1.24514,1328.14,1.0984,0.03
373,1.24455,2001.24,1.0984,0.03
374,1.24378,960.246,1.0984,0.03
375,1.24423,1010.34,1.0984,0.03
376,1.2428,502.799,1.0984,0.03
377,1.24162,941.194,1.0984,0.03
378,1.24002,4226.24,1.0984,0.03
379,1.23785,1598.89,1.0984,0.03
380,1.23808,1966.51,1.10043,0.03
381,1.23887,3592.62,1.10043,0.03
382,1.23916,1015.62,1.10245,0.03
383,1.23708,976.158,1.10245,0.03
384,1.23944,6352.78,1.10245,0.03
385,1.23985,8354.22,1.10448,0.03
386,1.23903,1188.03,1.10448,0.03
387,1.23902,2419.2,1.10448,0.03
388,1.23876,3528.27,1.10448,0.03
389,1.23978,1482.65,1.10448,0.03
390,1.23985,2401.17,1.10652,0.03
391,1.23859,3428.86,1.10652,0.03
392,1.23687,1021.09,1.10652,0.03
393,1.23608,764.511,1.10652,0.03
394,1.23874,1988.95,1.10652,0.03
395,1.24053,1150.72,1.10856,0.03
396,1.24123,1069.29,1.10856,0.03
397,1.24063,1052.28,1.10856,0.03
398,1.24218,3198.89,1.1106,0.03
399,1.23982,984.616,1.1106,0.03
400,1.23735,1016.91,1.1106,0.03
401,1.23882,1573.43,1.1106,0.03
402,1.24056,1813.47,1.11264,0.03
403,1.24212,1516.76,1.11264,0.03
404,1.24076,6687.71,1.11264,0.03
405,1.24183,10533.6,1.11469,0.03
406,1.24371,2349.73,1.11469,0.03
407,1.24346,781.6,1.11469,0.03
408,1.24457,1566.12,1.11675,0.03
409,1.24263,931.053,1.11675,0.03
410,1.24002,1009.26,1.11675,0.03
411,1.23866,904.138,1.11675,0.03
412,1.23679,686.049,1.11675,0.03
413,1.23435,663.996,1.11675,0.03
414,1.23439,886.368,1.11675,0.03
415,1.23641,2301.91,1.1188,0.03
416,1.23851,15678.1,1.1188,0.03
417,1.24019,5066.97,1.12086,0.03
418,1.24137,7209.22,1.12086,0.03
419,1.23997,1218.17,1.12086,0.03
420,1.24042,2113.63,1.12293,0.03
421,1.2417,5155.78,1.12293,0.03
422,1.24359,5001.14,1.125,0.03
423,1.24138,1096.91,1.125,0.03
424,1.23898,562.125,1.125,0.03
425,1.23973,1006.22,1.125,0.03
426,1.23967,2700.12,1.125,0.03
427,1.24246,889.688,1.12707,0.03
428,1.24336,4673.5,1.12707,0.03
429,1.24167,851.25,1.12707,0.03
430,1.2415,2167.19,1.12707,0.03
431,1.24172,2085.7,1.12915,0.03
432,1.23982,3805.36,1.12915,0.03
433,1.2382,20189.4,1.12915,0.03
434,1.23654,1353.63,1.12915,0.03
435,1.23454,3540.48,1.12915,0.03
436,1.23326,1444.14,1.12915,0.03
437,1.23626,18196.7,1.12915,0.03
438,1.23223,507.245,1.12915,0.03
439,1.23211,1034.18,1.12915,0.03
440,1.231,1279.4,1.12915,0.03
441,1.22705,630.492,1.12915,0.03
442,1.2284,4105.88,1.13123,0.03
443,1.22846,70666,1.13123,0.03
444,1.22871,2719.48,1.13331,0.03
445,1.22507,588.919,1.13331,0.03
446,1.22574,10401.9,1.13331,0.03
447,1.22701,1471.77,1.1354,0.03
448,1.22909,10487.5,1.1354,0.03
449,1.23048,15617.6,1.13749,0.03
450,1.2328,2274.56,1.13749,0.03
451,1.23156,2400.7,1.13749,0.03
452,1.23055,1764.84,1.13749,0.03
453,1.22919,775.049,1.13749,0.03
454,1.23095,3261.39,1.13958,0.03
455,1.23132,833.946,1.13958,0.03
456,1.23309,3759.86,1.14168,0.03
457,1.23251,1693.06,1.14168,0.03
458,1.22934,533.75,1.14168,0.03
459,1.22909,692.707,1.14168,0.03
460,1.22871,716.683,1.14168,0.03
461,1.22694,723.252,1.14168,0.03
462,1.22575,2315.68,1.14168,0.03
463,1.22575,42754,1.14168,0.03
464,1.22595,2124.06,1.14379,0.03
465,1.22542,1847.03,1.14379,0.03
466,1.22507,3997.72,1.14379,0.03
467,1.22491,1201.77,1.14379,0.03
468,1.22626,1112.79,1.14379,0.03
469,1.22784,5065.45,1.14589,0.03
470,1.22964,2971.98,1.14589,0.03
471,1.22863,837.735,1.14589,0.03
472,1.22763,17727.3,1.14589,0.03
473,1.23004,29072.7,1.148,0.03
474,1.22594,12978.9,1.148,0.03
475,1.22087,449.621,1.148,0.03
476,1.22038,874.449,1.148,0.03
477,1.2219,3160.86,1.148,0.03
478,1.22179,10236.9,1.148,0.03
479,1.21944,919.744,1.148,0.03
480,1.21851,799.821,1.148,0.03
481,1.21778,723.091,1.148,0.03
482,1.21759,3118.12,1.148,0.03
483,1.21606,733.223,1.148,0.03
484,1.21389,800.439,1.148,0.03
485,1.21348,2760.43,1.148,0.03
486,1.2107,916.859,1.148,0.03
487,1.21265,40378.7,1.15012,0.03
488,1.21215,535.827,1.15012,0.03
489,1.21231,4719.62,1.15012,0.03
490,1.21414,1966.15,1.15224,0.03
491,1.21397,11356.5,1.15224,0.03
492,1.21475,1583.7,1.15224,0.03
493,1.21429,734.46,1.15224,0.03
494,1.21616,3387.13,1.15436,0.03
495,1.21611,8166.49,1.15436,0.03
496,1.21356,1128.52,1.15436,0.03
497,1.21404,5752.44,1.15436,0.03
498,1.21195,3522.86,1.15436,0.03
499,1.21438,16902.8,1.15649,0.03
500,1.21451,1807.22,1.15649,0.03
501,1.21367,1224.31,1.15649,0.03
502,1.21332,1616.39,1.15649,0.03
503,1.21304,3307.25,1.15649,0.03
504,1.21351,5832.44,1.15862,0.03
505,1.21146,909.845,1.15862,0.03
506,1.21496,4275.99,1.15862,0.03
507,1.21396,765.509,1.15862,0.03
508,1.21231,1505.02,1.15862,0.03
509,1.21162,5191.55,1.15862,0.03
510,1.21029,759.117,1.15862,0.03
511,1.21037,1350.45,1.16075,0.03
512,1.21008,625.645,1.16075,0.03
513,1.20969,4015.67,1.16075,0.03
514,1.20903,1814.66,1.16075,0.03
515,1.21103,1650.27,1.16075,0.03
516,1.20799,683.121,1.16075,0.03
517,1.20895,936.336,1.16289,0.03
518,1.20531,542.165,1.16289,0.03
519,1.20445,964.689,1.16289,0.03
520,1.20576,2478.36,1.16289,0.03
521,1.20549,1013.1,1.16289,0.03
522,1.20572,2623.45,1.16503,0.03
523,1.20494,1397.36,1.16503,0.03
524,1.20414,767.318,1.16503,0.03
525,1.20437,3308.46,1.16503,0.03
526,1.20521,2557.07,1.16718,0.03
527,1.20653,1977.32,1.16718,0.03
528,1.20497,1518.7,1.16718,0.03
529,1.20333,1041.87,1.16718,0.03
530,1.20463,1044.45,1.16933,0.03
531,1.20483,2042.57,1.16933,0.03
532,1.20488,1290.72,1.17148,0.03
533,1.20451,526.421,1.17148,0.03
534,1.20298,556.056,1.17148,0.03
535,1.19939,523.945,1.17148,0.03
536,1.20044,5433.71,1.17148,0.03
537,1.20001,703.512,1.17148,0.03
538,1.19957,1970.65,1.17148,0.03
539,1.19935,795.622,1.17148,0.03
540,1.19902,2590.02,1.17148,0.03
541,1.19773,455.879,1.17148,0.03
542,1.19877,1485.37,1.17364,0.03
543,1.19957,1654.95,1.17364,0.03
544,1.19765,755.169,1.17364,0.03
545,1.19822,1194.13,1.1758,0.03
546,1.19929,1352.27,1.1758,0.03
547,1.19968,760.724,1.17797,0.03
548,1.20231,3466.43,1.17797,0.03
549,1.20231,731.159,1.17797,0.03
550,1.20382,80757.5,1.18014,0.03
551,1.20305,546.801,1.18014,0.03
552,1.2041,1757.03,1.18014,0.03
553,1.20402,2115.69,1.18014,0.03
554,1.20342,2187.97,1.18014,0.03
555,1.20341,981.304,1.18014,0.03
556,1.20518,1978.61,1.18231,0.03
557,1.20524,1162.91,1.18231,0.03
558,1.20424,1646.29,1.18231,0.03
559,1.20527,930.177,1.18449,0.03
560,1.20682,2470.56,1.18449,0.03
561,1.20652,745.05,1.18449,0.03
562,1.20833,4050.65,1.18667,0.03
563,1.20837,11012.4,1.18667,0.03
564,1.20723,712.78,1.18667,0.03
565,1.20632,1201.54,1.18667,0.03
566,1.20736,2487.15,1.18886,0.03
567,1.20879,2116,1.18886,0.03
568,1.20767,1354.89,1.18886,0.03
569,1.20391,465.913,1.18886,0.03
570,1.20323,3667.83,1.18886,0.03
571,1.19831,749.528,1.18886,0.03
572,1.19992,4718.11,1.19105,0.03
573,1.19992,722.422,1.19105,0.03
574,1.19964,654.41,1.19105,0.03
575,1.20045,1811.09,1.19324,0.03
576,1.20124,6063.46,1.19324,0.03
577,1.20185,17727.3,1.19544,0.03
578,1.20173,3753.17,1.19544,0.03
579,1.19851,953.205,1.19544,0.03
580,1.19708,1279.49,1.19544,0.03
581,1.19671,752.989,1.19544,0.03
582,1.19561,1949.01,1.19544,0.03
583,1.19866,10312.6,1.19544,0.03
584,1.20049,242272,1.19764,0.03
585,1.20079,8776.41,1.19764,0.03
586,1.20016,1845.27,1.19764,0.03
587,1.19652,1495.87,1.19764,0.03
588,1.19711,1194.96,1.19985,0.03
589,1.19765,1826.53,1.19985,0.03
590,1.19709,889.836,1.19985,0.03
591,1.19719,1551.9,1.20206,0.03
592,1.1944,704.847,1.20206,0.03
593,1.19205,951.07,1.20206,0.03
594,1.19293,1971.15,1.20206,0.03
595,1.19032,518.402,1.20206,0.03
596,1.19081,4825.48,1.20427,0.03
597,1.18949,5195.01,1.20427,0.03
598,1.1898,1174.41,1.20427,0.03
599,1.19205,4637.14,1.20649,0.03
600,1.19077,1444.06,1.20649,0.03
601,1.19103,878.789,1.20649,0.03
602,1.19047,1547.39,1.20649,0.03
603,1.19295,4289.72,1.20871,0.03
604,1.19316,1232.12,1.20871,0.03
605,1.19397,691.082,1.21094,0.03
606,1.19522,1358.7,1.21094,0.03
607,1.19226,1388.1,1.21094,0.03
608,1.19249,3862.43,1.21317,0.03
609,1.19139,622.875,1.21317,0.03
610,1.1911,919.782,1.21317,0.03
611,1.19216,2440.08,1.21317,0.03
612,1.19436,1481.48,1.2154,0.03
613,1.19448,2013.25,1.2154,0.03
614,1.19236,2659.39,1.2154,0.03
615,1.19141,2109.03,1.2154,0.03
616,1.19193,2110.62,1.21764,0.03
617,1.18766,464.372,1.21764,0.03
618,1.18906,4671.5,1.21764,0.03
619,1.18754,1380.4,1.21764,0.03
620,1.18706,3765.27,1.21764,0.03
621,1.18411,576.773,1.21764,0.03
622,1.18399,1656.06,1.21764,0.03
623,1.18357,848.284,1.21764,0.03
624,1.18227,934.032,1.21764,0.03
