step,energy,beta,lambda,delta
0,1.52302,184.646,1,0.03
1,1.52145,5681.37,0.99954,0.03
2,1.52002,9636.17,0.99935,0.03
3,1.51825,1845.34,0.999289,0.03
4,1.51524,3034.48,0.999303,0.03
5,1.51412,5397.93,0.999368,0.03
6,1.51179,1365.25,0.999465,0.03
7,1.5108,2813.3,0.999587,0.03
8,1.5087,3189.73,0.999728,0.03
9,1.50743,5043.19,0.999886,0.03
10,1.50521,1103.13,1.00006,0.03
11,1.50376,1426.73,1.00024,0.03
12,1.50087,3487.17,1.00044,0.03
13,1.49887,3020.09,1.00064,0.03
14,1.49844,3076.87,1.00085,0.03
15,1.49727,5292.67,1.00108,0.03
16,1.4947,1155.78,1.0013,0.03
17,1.49266,3158.76,1.00154,0.03
18,1.49095,2035.02,1.00178,0.03
19,1.48929,4073.73,1.00203,0.03
20,1.48857,20806.9,1.00229,0.03
21,1.48821,2776.73,1.00255,0.03
22,1.48613,1836.74,1.00281,0.03
23,1.48549,3105.1,1.00308,0.03
24,1.48428,5367.94,1.00336,0.03
25,1.48212,2546.12,1.00363,0.03
26,1.47962,2667.94,1.00391,0.03
27,1.47763,38254.1,1.0042,0.03
28,1.47585,1275.9,1.00448,0.03
29,1.47412,2120.75,1.00477,0.03
30,1.47269,1861.85,1.00506,0.03
31,1.47246,2808.72,1.00536,0.03
32,1.47247,2546.18,1.00566,0.03
33,1.471,45437.4,1.00596,0.03
34,1.46902,1535.66,1.00626,0.03
35,1.46755,2006.17,1.00656,0.03
36,1.46665,1380.5,1.00687,0.03
37,1.46484,1465.34,1.00718,0.03
38,1.46279,2157.34,1.0075,0.03
39,1.46264,15841.7,1.00782,0.03
40,1.45947,6401.88,1.00814,0.03
41,1.45828,6816.47,1.00846,0.03
42,1.45739,2602.59,1.00879,0.03
43,1.45668,5466.24,1.00912,0.03
44,1.45237,706.355,1.00945,0.03
45,1.452,10380.9,1.00978,0.03
46,1.45064,1471.62,1.01011,0.03
47,1.44984,2481.64,1.01044,0.03
48,1.44886,45437.4,1.01078,0.03
49,1.44602,2991.32,1.01111,0.03
50,1.44498,1403.96,1.01145,0.03
51,1.44417,2884.14,1.01179,0.03
52,1.44222,1672.53,1.01214,0.03
53,1.43682,477.299,1.01248,0.03
54,1.43682,2816.19,1.01282,0.03
55,1.43713,1826.81,1.01317,0.03
56,1.43724,3431.96,1.01352,0.03
57,1.43542,3022.27,1.01387,0.03
58,1.43377,1501.94,1.01422,0.03
59,1.43234,1345.04,1.01457,0.03
60,1.42994,973.628,1.01492,0.03
61,1.43089,7560.67,1.01528,0.03
62,1.43004,3548.17,1.01563,0.03
63,1.43079,1473.33,1.01599,0.03
64,1.4299,1489.7,1.01634,0.03
65,1.42856,2443.6,1.0167,0.03
66,1.42781,15903.2,1.01706,0.03
67,1.42649,1710,1.01742,0.03
68,1.42499,2972.59,1.01778,0.03
69,1.42336,3207.38,1.01814,0.03
70,1.42348,2692.93,1.0185,0.03
71,1.42225,2125.04,1.01886,0.03
72,1.4216,1457.83,1.01922,0.03
73,1.42062,1175.21,1.01959,0.03
74,1.41774,1051.62,1.01995,0.03
75,1.41657,3445.37,1.02032,0.03
76,1.41546,2005.29,1.02069,0.03
77,1.4137,8864.37,1.02106,0.03
78,1.4131,3147.51,1.02143,0.03
79,1.41261,3069.27,1.0218,0.03
80,1.41252,5635.97,1.02217,0.03
81,1.41067,3126.26,1.02254,0.03
82,1.40876,7264.92,1.02292,0.03
83,1.40802,3057.32,1.02329,0.03
84,1.40763,4142.57,1.02367,0.03
85,1.4061,1314.95,1.02404,0.03
86,1.40645,3881.68,1.02442,0.03
87,1.40741,5179.69,1.0248,0.03
88,1.40722,1711.46,1.02518,0.03
89,1.40612,3009.17,1.02556,0.03
90,1.40389,1007.61,1.02593,0.03
91,1.4033,3820.4,1.02631,0.03
92,1.40199,2924.22,1.0267,0.03
93,1.4005,1058.18,1.02708,0.03
94,1.3983,8863.63,1.02746,0.03
95,1.39679,2491.39,1.02784,0.03
96,1.39722,6976.76,1.02823,0.03
97,1.39734,2069.27,1.02861,0.03
98,1.39615,3838.45,1.029,0.03
99,1.39653,3947.17,1.02938,0.03
100,1.39396,3625.69,1.02977,0.03
101,1.391,1192.01,1.03016,0.03
102,1.39008,3141.52,1.03055,0.03
103,1.38987,3244.58,1.03094,0.03
104,1.39037,6212.26,1.03132,0.03
105,1.38829,905.358,1.03171,0.03
106,1.38876,6509.06,1.0321,0.03
107,1.38605,974.581,1.0325,0.03
108,1.38527,1117.35,1.03289,0.03
109,1.38265,1292.06,1.03328,0.03
110,1.38192,181704,1.03367,0.03
111,1.38091,1942.12,1.03407,0.03
112,1.37942,1096.03,1.03446,0.03
113,1.37832,14761.6,1.03485,0.03
114,1.37589,1028.26,1.03525,0.03
115,1.37322,1168.57,1.03564,0.03
116,1.37368,16437.5,1.03604,0.03
117,1.37343,1864.83,1.03644,0.03
118,1.37284,3344.64,1.03683,0.03
119,1.3718,1345.38,1.03723,0.03
120,1.36909,7277.14,1.03763,0.03
121,1.36939,4735,1.03802,0.03
122,1.36972,7166.94,1.03842,0.03
123,1.3686,1944.42,1.03882,0.03
124,1.36722,2552.84,1.03922,0.03
125,1.36706,3397.85,1.03962,0.03
126,1.36633,5549.12,1.04002,0.03
127,1.36524,1018.74,1.04042,0.03
128,1.36526,5231.85,1.04083,0.03
129,1.36409,1011.69,1.04123,0.03
130,1.36308,1118.1,1.04163,0.03
131,1.36331,2068.36,1.04203,0.03
132,1.36127,1365.85,1.04244,0.03
133,1.36143,726817,1.04284,0.03
134,1.36136,3361.02,1.04325,0.03
135,1.36259,7775.25,1.04365,0.03
136,1.36068,1818.03,1.04406,0.03
137,1.3585,1142.17,1.04446,0.03
138,1.35857,5959.99,1.04487,0.03
139,1.35817,2177.05,1.04528,0.03
140,1.35809,726817,1.04569,0.03
141,1.35732,10743.6,1.0461,0.03
142,1.35764,5162.41,1.04651,0.03
143,1.35649,1535.99,1.04692,0.03
144,1.35556,1490.08,1.04733,0.03
145,1.35637,2874.64,1.04774,0.03
146,1.35522,1304.3,1.04815,0.03
147,1.35417,2072.08,1.04856,0.03
148,1.35295,2138.83,1.04897,0.03
149,1.35295,1960.7,1.04939,0.03
150,1.35556,5023.38,1.0498,0.03
151,1.35434,1155.93,1.05021,0.03
152,1.35124,1161.2,1.05062,0.03
153,1.35039,2023.56,1.05104,0.03
154,1.34986,1489.41,1.05145,0.03
155,1.35027,9900.58,1.05186,0.03
156,1.3512,5462.09,1.05228,0.03
157,1.34846,813.139,1.0527,0.03
158,1.34846,7996.86,1.05311,0.03
159,1.34788,1670.01,1.05353,0.03
160,1.34715,1911.5,1.05394,0.03
161,1.3476,13024.7,1.05436,0.03
162,1.34847,1819.47,1.05478,0.03
163,1.34621,2383.29,1.05519,0.03
164,1.34521,1102.26,1.05561,0.03
165,1.34615,13009.9,1.05603,0.03
166,1.3454,6849.11,1.05645,0.03
167,1.344,7988.09,1.05686,0.03
168,1.34506,2406.75,1.05728,0.03
169,1.34207,3075.43,1.0577,0.03
170,1.33981,941.576,1.05812,0.03
171,1.33955,1781.41,1.05854,0.03
172,1.33963,4518.78,1.05896,0.03
173,1.33763,9246.08,1.05938,0.03
174,1.33801,5738.9,1.0598,0.03
175,1.33892,6432.94,1.06022,0.03
176,1.33932,1940.91,1.06064,0.03
177,1.33773,2365.5,1.06106,0.03
178,1.33732,785.986,1.06149,0.03
179,1.33808,1549.68,1.06191,0.03
180,1.33641,973.328,1.06233,0.03
181,1.33522,883.093,1.06276,0.03
182,1.33273,762.436,1.06318,0.03
183,1.33295,5173.47,1.06361,0.03
184,1.33431,9759.85,1.06403,0.03
185,1.33474,13150.9,1.06446,0.03
186,1.33411,1297.11,1.06488,0.03
187,1.33224,1685.81,1.06531,0.03
188,1.33273,3416.81,1.06574,0.03
189,1.33045,867.75,1.06617,0.03
190,1.33093,3125.42,1.06659,0.03
191,1.3306,4016.4,1.06702,0.03
192,1.32873,1908.71,1.06745,0.03
193,1.32979,1681.8,1.06788,0.03
194,1.32855,5548.3,1.06831,0.03
195,1.32751,7130.8,1.06874,0.03
196,1.32708,2026.41,1.06917,0.03
197,1.32471,2183.77,1.0696,0.03
198,1.32411,1131.96,1.07003,0.03
199,1.32112,2508.13,1.07046,0.03
200,1.32007,986.947,1.07089,0.03
201,1.31966,3069.33,1.07133,0.03
202,1.31921,1243.17,1.07176,0.03
203,1.31889,1763.63,1.07219,0.03
204,1.31781,712.428,1.07262,0.03
205,1.31582,1510.3,1.07306,0.03
206,1.3164,1751.33,1.07349,0.03
207,1.31603,1160.3,1.07392,0.03
208,1.3139,569.613,1.07436,0.03
209,1.31491,3980.21,1.07479,0.03
210,1.31042,392.255,1.07522,0.03
211,1.31119,31600.8,1.07566,0.03
212,1.30908,3477.1,1.07609,0.03
213,1.30893,6375.59,1.07653,0.03
214,1.30753,767.513,1.07697,0.03
215,1.30739,539.942,1.0774,0.03
216,1.30636,1440.17,1.07784,0.03
217,1.30601,1369.9,1.07827,0.03
218,1.30325,750.545,1.07871,0.03
219,1.30506,1852.1,1.07915,0.03
220,1.30578,2426.29,1.07959,0.03
221,1.30662,3765.64,1.08002,0.03
222,1.30654,3039.14,1.08046,0.03
223,1.30668,4118.52,1.0809,0.03
224,1.30375,4719.59,1.08134,0.03
225,1.30485,5103.89,1.08178,0.03
226,1.3041,2084.15,1.08222,0.03
227,1.30335,45426.1,1.08266,0.03
228,1.30405,1465.11,1.0831,0.03
229,1.30202,900.152,1.08354,0.03
230,1.29902,1478.41,1.08398,0.03
231,1.29989,3011.1,1.08443,0.03
232,1.30307,2909.3,1.08487,0.03
233,1.30231,3788.94,1.08531,0.03
234,1.30122,2369.27,1.08575,0.03
235,1.29973,738.917,1.08619,0.03
236,1.29894,3582.66,1.08664,0.03
237,1.29556,1057.89,1.08708,0.03
238,1.29529,5375.84,1.08752,0.03
239,1.29313,1273.47,1.08796,0.03
240,1.29275,1219.95,1.08841,0.03
241,1.29151,2502.46,1.08885,0.03
242,1.28853,814.672,1.0893,0.03
243,1.28823,2481.66,1.08974,0.03
244,1.28586,865.652,1.09019,0.03
245,1.28533,775.944,1.09063,0.03
246,1.28551,2376.73,1.09108,0.03
247,1.28449,895.349,1.09152,0.03
248,1.28375,957.621,1.09197,0.03
249,1.28383,7056.48,1.09241,0.03
250,1.28315,3261.72,1.09286,0.03
251,1.28281,1642.8,1.0933,0.03
252,1.28192,1122,1.09375,0.03
253,1.28184,2416.01,1.0942,0.03
254,1.27894,4349.32,1.09464,0.03
255,1.28011,25957.8,1.09509,0.03
256,1.28154,2615.1,1.09554,0.03
257,1.27983,1395.57,1.09598,0.03
258,1.2806,1484.92,1.09643,0.03
259,1.28005,2861.14,1.09688,0.03
260,1.27856,682.176,1.09733,0.03
261,1.27612,5912.66,1.09778,0.03
262,1.27587,2108.63,1.09822,0.03
263,1.27548,1245.01,1.09867,0.03
264,1.27418,1670.17,1.09912,0.03
265,1.27581,3519.23,1.09957,0.03
266,1.27627,2009.53,1.10002,0.03
267,1.27775,3491.45,1.10047,0.03
268,1.27664,3298.53,1.10092,0.03
269,1.27616,4926.28,1.10137,0.03
270,1.27585,3549.14,1.10183,0.03
271,1.2769,20189.4,1.10228,0.03
272,1.27629,1751.48,1.10273,0.03
273,1.27563,1604.06,1.10318,0.03
274,1.27426,798.696,1.10363,0.03
275,1.27397,2523.53,1.10409,0.03
276,1.27493,38253.5,1.10454,0.03
277,1.27565,1428.78,1.10499,0.03
278,1.27541,1101.94,1.10544,0.03
279,1.27579,4275.87,1.1059,0.03
280,1.27447,1102.84,1.10635,0.03
281,1.27323,1344.99,1.1068,0.03
282,1.27378,1314.61,1.10725,0.03
283,1.27411,7590.57,1.10771,0.03
284,1.27417,3555.89,1.10816,0.03
285,1.27541,9523.52,1.10862,0.03
286,1.27202,4781.72,1.10907,0.03
287,1.27062,805.678,1.10952,0.03
288,1.27186,2664.63,1.10998,0.03
289,1.27139,15874.9,1.11043,0.03
290,1.26859,1058.38,1.11089,0.03
291,1.26542,732.896,1.11134,0.03
292,1.26413,2757.78,1.1118,0.03
293,1.26155,2624.06,1.11225,0.03
294,1.26436,2888.01,1.11271,0.03
295,1.26228,1397.02,1.11317,0.03
296,1.25945,1249.1,1.11362,0.03
297,1.25761,1076.5,1.11408,0.03
298,1.25743,3803.45,1.11454,0.03
299,1.25936,2380.68,1.115,0.03
300,1.26116,21227,1.11545,0.03
301,1.26157,4160.45,1.11591,0.03
302,1.26154,1280.73,1.11637,0.03
303,1.26048,930.659,1.11683,0.03
304,1.26093,2740.71,1.11729,0.03
305,1.26067,2417.38,1.11775,0.03
306,1.26077,665.288,1.11821,0.03
307,1.26074,1673.49,1.11866,0.03
308,1.25882,509.658,1.11912,0.03
309,1.25909,2340.54,1.11958,0.03
310,1.2608,42754,1.12004,0.03
311,1.257,1510.88,1.12051,0.03
312,1.25772,980.72,1.12097,0.03
313,1.25814,2470.29,1.12143,0.03
314,1.25817,1505.1,1.12189,0.03
315,1.25971,2197.34,1.12235,0.03
316,1.25728,1450.82,1.12281,0.03
317,1.25844,3177.11,1.12327,0.03
318,1.25956,4324.1,1.12373,0.03
319,1.25579,496.161,1.1242,0.03
320,1.25656,6865.69,1.12466,0.03
321,1.2563,1157.84,1.12512,0.03
322,1.25399,660.401,1.12559,0.03
323,1.25364,1451.62,1.12605,0.03
324,1.2524,1148.59,1.12651,0.03
325,1.25059,1946.36,1.12698,0.03
326,1.25226,27954.7,1.12744,0.03
327,1.25259,4404.98,1.12791,0.03
328,1.24945,1078.32,1.12837,0.03
329,1.24637,656.484,1.12884,0.03
330,1.24455,625.969,1.1293,0.03
331,1.24348,1355.37,1.12977,0.03
332,1.24288,34610.4,1.13023,0.03
333,1.24163,5403.29,1.1307,0.03
334,1.24067,1167.67,1.13116,0.03
335,1.24256,7638.27,1.13163,0.03
336,1.24074,720.008,1.13209,0.03
337,1.23985,1758.14,1.13256,0.03
338,1.24011,1040.1,1.13303,0.03
339,1.23976,1588.65,1.13349,0.03
340,1.23963,1562.24,1.13396,0.03
341,1.24055,1146.98,1.13443,0.03
342,1.23959,1273.04,1.13489,0.03
343,1.23779,1258.92,1.13536,0.03
344,1.23749,643.238,1.13583,0.03
345,1.23637,2228.5,1.1363,0.03
346,1.23635,2208.95,1.13676,0.03
347,1.23306,520.917,1.13723,0.03
348,1.23408,3187.45,1.1377,0.03
349,1.2331,3239.02,1.13817,0.03
350,1.23352,1030.65,1.13864,0.03
351,1.23549,1286.72,1.13911,0.03
352,1.23536,847.885,1.13957,0.03
353,1.23532,2481.17,1.14004,0.03
354,1.23496,4432.14,1.14051,0.03
355,1.2361,2530.71,1.14098,0.03
356,1.2351,755.876,1.14145,0.03
357,1.23845,5337.87,1.14192,0.03
358,1.24133,38253.5,1.14239,0.03
359,1.24359,1783.85,1.14286,0.03
360,1.24221,494.549,1.14333,0.03
361,1.2407,1035.89,1.1438,0.03
362,1.24214,7597.59,1.14427,0.03
363,1.24278,4087.04,1.14474,0.03
364,1.24294,1440.79,1.14521,0.03
365,1.242,1543.43,1.14569,0.03
366,1.24253,3239.67,1.14616,0.03
367,1.23909,432.921,1.14663,0.03
368,1.23798,2415.42,1.1471,0.03
369,1.23644,729.739,1.14758,0.03
370,1.23468,1588.03,1.14805,0.03
371,1.23607,1288.86,1.14852,0.03
372,1.23436,802.927,1.149,0.03
373,1.23284,1107.44,1.14947,0.03
374,1.23396,2970.22,1.14995,0.03
375,1.23366,1886.51,1.15042,0.03
376,1.23362,1529.7,1.1509,0.03
377,1.23275,1940.1,1.15137,0.03
378,1.23742,4417.81,1.15184,0.03
379,1.23701,5750.08,1.15232,0.03
380,1.23672,1419.68,1.15279,0.03
381,1.23597,3709.84,1.15327,0.03
382,1.23627,2030.03,1.15374,0.03
383,1.23758,7639.33,1.15422,0.03
384,1.23723,6769.12,1.15469,0.03
385,1.23784,6552.42,1.15517,0.03
386,1.23596,1501.48,1.15564,0.03
387,1.23614,641.786,1.15612,0.03
388,1.23681,6109.42,1.1566,0.03
389,1.23606,2291.73,1.15707,0.03
390,1.23507,2764.11,1.15755,0.03
391,1.23563,1809.82,1.15803,0.03
392,1.23618,1523.96,1.15851,0.03
393,1.23219,1893.08,1.15898,0.03
394,1.22937,847.401,1.15946,0.03
395,1.2303,9821.98,1.15994,0.03
396,1.22816,985.941,1.16042,0.03
397,1.22721,1338.06,1.1609,0.03
398,1.22759,914.629,1.16138,0.03
399,1.22532,846.077,1.16186,0.03
400,1.22477,900.298,1.16233,0.03
401,1.22379,1414.11,1.16281,0.03
402,1.22476,2746.16,1.16329,0.03
403,1.22457,1168.31,1.16377,0.03
404,1.22211,667.002,1.16425,0.03
405,1.22046,756.931,1.16473,0.03
406,1.22286,3094.38,1.16521,0.03
407,1.22269,1397.03,1.1657,0.03
408,1.22568,1550.78,1.16618,0.03
409,1.22637,27954.5,1.16666,0.03
410,1.2253,1586.22,1.16714,0.03
411,1.22503,1728.75,1.16762,0.03
412,1.226,1249.4,1.1681,0.03
413,1.22439,1316.12,1.16858,0.03
414,1.22359,1569.45,1.16907,0.03
415,1.22191,1642.99,1.16955,0.03
416,1.2213,1481.41,1.17003,0.03
417,1.22032,2477.86,1.17052,0.03
418,1.22052,4460.86,1.171,0.03
419,1.21932,2261.37,1.17149,0.03
420,1.21873,1083.42,1.17197,0.03
421,1.21717,604.462,1.17246,0.03
422,1.21557,748.475,1.17294,0.03
423,1.21423,648.113,1.17343,0.03
424,1.21676,51915.5,1.17391,0.03
425,1.2166,684.9,1.1744,0.03
426,1.21661,22713,1.17488,0.03
427,1.21772,2013.93,1.17537,0.03
428,1.21601,650.044,1.17586,0.03
429,1.2142,895.589,1.17634,0.03
430,1.21358,702.901,1.17683,0.03
431,1.21364,1334.45,1.17732,0.03
432,1.21567,1876.12,1.17781,0.03
433,1.21721,1883.5,1.1783,0.03
434,1.21882,1112.98,1.17878,0.03
435,1.21692,578.257,1.17927,0.03
436,1.21547,802.635,1.17976,0.03
437,1.21757,7918.72,1.18025,0.03
438,1.21781,834.314,1.18074,0.03
439,1.21678,1744.47,1.18123,0.03
440,1.21801,1111.49,1.18172,0.03
441,1.21831,1103.11,1.18221,0.03
442,1.21788,1054.65,1.1827,0.03
443,1.21685,1252.62,1.18319,0.03
444,1.21683,2991.8,1.18368,0.03
445,1.21758,1138.49,1.18417,0.03
446,1.21672,1671.79,1.18466,0.03
447,1.21534,533.423,1.18515,0.03
448,1.21742,8373.5,1.18565,0.03
449,1.21724,1083.62,1.18614,0.03
450,1.21885,2403.98,1.18663,0.03
451,1.21661,1904.02,1.18712,0.03
452,1.21535,20189.4,1.18762,0.03
453,1.21392,1066.34,1.18811,0.03
454,1.21416,2638.35,1.1886,0.03
455,1.21416,3728.27,1.18909,0.03
456,1.21622,1445.79,1.18959,0.03
457,1.21427,839.147,1.19008,0.03
458,1.21499,1197.48,1.19057,0.03
459,1.21569,1950.58,1.19107,0.03
460,1.21434,621.441,1.19156,0.03
461,1.21326,3496.28,1.19206,0.03
462,1.21339,4990.79,1.19255,0.03
463,1.21578,1434.52,1.19305,0.03
464,1.21348,775.535,1.19354,0.03
465,1.21228,846.599,1.19404,0.03
466,1.21137,5678.26,1.19453,0.03
467,1.21301,11812.1,1.19503,0.03
468,1.21263,988.502,1.19553,0.03
469,1.21284,1468.89,1.19602,0.03
470,1.21492,3291.56,1.19652,0.03
471,1.21101,696.142,1.19702,0.03
472,1.20915,1290.64,1.19751,0.03
473,1.21041,3737.39,1.19801,0.03
474,1.21215,1290.27,1.19851,0.03
475,1.21168,1691.94,1.199,0.03
476,1.21324,6006.92,1.1995,0.03
477,1.21055,552.329,1.2,0.03
478,1.20738,2614.5,1.2005,0.03
479,1.20826,3143.33,1.201,0.03
480,1.20747,736.265,1.2015,0.03
481,1.2059,1737.76,1.202,0.03
482,1.20478,742.4,1.2025,0.03
483,1.20598,2708.66,1.203,0.03
484,1.20402,683.702,1.2035,0.03
485,1.20339,1120.84,1.204,0.03
486,1.20144,540.137,1.2045,0.03
487,1.20226,6550.79,1.205,0.03
488,1.20216,34610.4,1.2055,0.03
489,1.20236,3828.03,1.206,0.03
490,1.20254,1088.06,1.2065,0.03
491,1.20443,1529.92,1.207,0.03
492,1.20491,1521.25,1.2075,0.03
493,1.20172,429.65,1.208,0.03
494,1.19997,780.313,1.2085,0.03
495,1.20045,834.002,1.20901,0.03
496,1.20105,2269.28,1.20951,0.03
497,1.20098,2005.46,1.21001,0.03
498,1.19984,8348.85,1.21051,0.03
499,1.19994,4429,1.21102,0.03
500,1.1994,2593.06,1.21152,0.03
501,1.20015,1356.94,1.21202,0.03
502,1.20238,4792.86,1.21253,0.03
503,1.2041,2035.88,1.21303,0.03
504,1.20038,700.932,1.21353,0.03
505,1.1986,741.839,1.21403,0.03
506,1.19649,4087.62,1.21454,0.03
507,1.19732,3429.91,1.21504,0.03
508,1.19998,2700.01,1.21555,0.03
509,1.20193,1905.09,1.21605,0.03
510,1.2014,933.102,1.21655,0.03
511,1.20185,1760.37,1.21706,0.03
512,1.20247,2251.55,1.21756,0.03
513,1.20115,1591.2,1.21807,0.03
514,1.2029,23123.2,1.21857,0.03
515,1.20289,5433.21,1.21908,0.03
516,1.19949,665.603,1.21958,0.03
517,1.20085,6298.87,1.22009,0.03
518,1.19883,1134.35,1.22059,0.03
519,1.2003,51915.5,1.2211,0.03
520,1.19947,852.076,1.22161,0.03
521,1.19904,1155.34,1.22211,0.03
522,1.19777,930.953,1.22262,0.03
523,1.19624,1146.86,1.22313,0.03
524,1.19926,1737.1,1.22363,0.03
525,1.19836,3581.81,1.22414,0.03
526,1.19985,1530.8,1.22465,0.03
527,1.19944,2135.7,1.22516,0.03
528,1.19962,7732.1,1.22567,0.03
529,1.20023,1450.43,1.22618,0.03
530,1.19697,803.191,1.22668,0.03
531,1.19323,776.829,1.22719,0.03
532,1.19139,803.3,1.2277,0.03
533,1.18789,737.325,1.22821,0.03
534,1.18636,3187.8,1.22872,0.03
535,1.18417,8550.79,1.22923,0.03
536,1.185,1303.09,1.22974,0.03
537,1.18448,809.564,1.23025,0.03
538,1.18525,1965.86,1.23076,0.03
539,1.18821,4159.9,1.23128,0.03
540,1.1867,3353.39,1.23179,0.03
541,1.18857,5927.01,1.2323,0.03
542,1.18757,1409.93,1.23281,0.03
543,1.18744,1166.16,1.23332,0.03
544,1.18744,1943.61,1.23383,0.03
545,1.18728,1132.54,1.23435,0.03
546,1.18672,1074.38,1.23486,0.03
547,1.1858,2105.95,1.23537,0.03
548,1.18596,2463.33,1.23588,0.03
549,1.18519,682.897,1.2364,0.03
550,1.18366,1814.75,1.23691,0.03
551,1.18488,5986.75,1.23743,0.03
552,1.18333,592.17,1.23794,0.03
553,1.18303,1086.51,1.23845,0.03
554,1.18082,3041.3,1.23897,0.03
555,1.18083,669.155,1.23948,0.03
556,1.17951,845.335,1.24,0.03
557,1.17804,626.391,1.24051,0.03
558,1.17792,1316.93,1.24103,0.03
559,1.17603,2609.47,1.24154,0.03
560,1.17243,623.291,1.24206,0.03
561,1.17476,2992.71,1.24257,0.03
562,1.17354,1202.99,1.24309,0.03
563,1.17429,4223.93,1.2436,0.03
564,1.17246,573.784,1.24412,0.03
565,1.17308,4498.07,1.24463,0.03
566,1.17387,40378.7,1.24515,0.03
567,1.17231,360.919,1.24566,0.03
568,1.17268,3892.94,1.24618,0.03
569,1.17231,1335.4,1.2467,0.03
570,1.1706,2376.46,1.24722,0.03
571,1.16984,719.773,1.24773,0.03
572,1.17045,1163.72,1.24825,0.03
573,1.17179,2178.06,1.24877,0.03
574,1.17015,1416.64,1.24929,0.03
575,1.1708,1749.73,1.24981,0.03
576,1.17158,1759.17,1.25033,0.03
577,1.17138,17305.2,1.25085,0.03
578,1.17244,2928.41,1.25137,0.03
579,1.1752,8782.76,1.25189,0.03
580,1.17657,1445.79,1.25241,0.03
581,1.17565,956.529,1.25293,0.03
582,1.1772,1707.56,1.25345,0.03
583,1.17859,2263.19,1.25397,0.03
584,1.17925,2511.32,1.25449,0.03
585,1.17931,1443.82,1.25501,0.03
586,1.18028,4781.7,1.25553,0.03
587,1.17859,939.361,1.25605,0.03
588,1.17744,1012,1.25658,0.03
589,1.17659,1489.51,1.2571,0.03
590,1.17923,2237.96,1.25762,0.03
591,1.17747,789.877,1.25814,0.03
592,1.17773,1342.14,1.25866,0.03
593,1.17801,1267.44,1.25919,0.03
594,1.17988,12872.6,1.25971,0.03
595,1.17991,896.762,1.26023,0.03
596,1.18235,2246.04,1.26076,0.03
597,1.18111,2984.15,1.26128,0.03
598,1.17674,489.303,1.2618,0.03
599,1.17449,2266.91,1.26233,0.03
600,1.17155,888.154,1.26285,0.03
601,1.16988,930.415,1.26338,0.03
602,1.16785,513.962,1.2639,0.03
603,1.16662,701.395,1.26443,0.03
604,1.16938,1850.95,1.26495,0.03
605,1.1685,1318.14,1.26548,0.03
606,1.17024,40378.7,1.266,0.03
607,1.17093,1697.47,1.26653,0.03
608,1.17288,1422.16,1.26705,0.03
609,1.16868,6489.44,1.26758,0.03
610,1.16829,1877.59,1.26811,0.03
611,1.17105,1874.49,1.26863,0.03
612,1.16999,1663.51,1.26916,0.03
613,1.17054,1097.34,1.26968,0.03
614,1.17217,1929.84,1.27021,0.03
