step,energy,beta,lambda,delta
0,1.52804,435.979,1,0.03
1,1.52633,1918.21,0.99954,0.03
2,1.52424,17313.3,0.99936,0.03
3,1.52298,11574.7,0.999288,0.03
4,1.51948,892.158,0.999297,0.03
5,1.51808,2282.04,0.999346,0.03
6,1.51632,2894.87,0.99943,0.03
7,1.51619,4073.34,0.999545,0.03
8,1.51447,3414.35,0.999681,0.03
9,1.51244,3471.87,0.999838,0.03
10,1.51124,11346.1,1.00001,0.03
11,1.5086,1249.05,1.0002,0.03
12,1.50621,1479.15,1.00039,0.03
13,1.5044,145363,1.0006,0.03
14,1.50304,2039.92,1.00081,0.03
15,1.50098,1885.85,1.00104,0.03
16,1.49831,1654.55,1.00127,0.03
17,1.49627,3243.26,1.0015,0.03
18,1.49446,2193.14,1.00175,0.03
19,1.49341,3908.14,1.002,0.03
20,1.49171,9707.33,1.00226,0.03
21,1.48976,26187.3,1.00253,0.03
22,1.48668,2563.56,1.0028,0.03
23,1.48397,2083.32,1.00307,0.03
24,1.48253,1421.68,1.00335,0.03
25,1.48063,1663.99,1.00363,0.03
26,1.48018,1822.79,1.00391,0.03
27,1.47853,55909,1.0042,0.03
28,1.47808,8560.35,1.00449,0.03
29,1.47714,2899.97,1.00478,0.03
30,1.47594,3632.63,1.00508,0.03
31,1.47408,4653.92,1.00538,0.03
32,1.47164,3405.87,1.00568,0.03
33,1.47075,2022.53,1.00599,0.03
34,1.47064,12980.5,1.0063,0.03
35,1.4693,2455.44,1.00661,0.03
36,1.46879,3480.76,1.00692,0.03
37,1.46726,2687.31,1.00724,0.03
38,1.46616,11254.8,1.00755,0.03
39,1.46449,1626.18,1.00787,0.03
40,1.46341,2435.61,1.0082,0.03
41,1.46119,1048.93,1.00852,0.03
42,1.46094,8948.7,1.00884,0.03
43,1.46037,5783.4,1.00917,0.03
44,1.45886,2105.39,1.0095,0.03
45,1.45695,1453.93,1.00983,0.03
46,1.4553,1141.89,1.01017,0.03
47,1.45252,1643.95,1.0105,0.03
48,1.45194,4591.06,1.01084,0.03
49,1.45104,10848.1,1.01118,0.03
50,1.44751,1642.57,1.01152,0.03
51,1.44439,1137.07,1.01186,0.03
52,1.44369,14841.1,1.01221,0.03
53,1.44221,1358.87,1.01255,0.03
54,1.44253,4538.07,1.0129,0.03
55,1.44077,11181.9,1.01324,0.03
56,1.43979,1328.16,1.01359,0.03
57,1.43641,1973.73,1.01394,0.03
58,1.43598,5885.36,1.01429,0.03
59,1.43503,2429.65,1.01464,0.03
60,1.43325,4015.98,1.01499,0.03
61,1.43237,4324.66,1.01535,0.03
62,1.43069,1367.05,1.0157,0.03
63,1.42876,1358.55,1.01605,0.03
64,1.42846,5376.66,1.01641,0.03
65,1.42694,1753.64,1.01677,0.03
66,1.42717,2202.02,1.01712,0.03
67,1.42725,6867.73,1.01748,0.03
68,1.42576,4139.63,1.01784,0.03
69,1.42294,1829.67,1.0182,0.03
70,1.42033,2120.97,1.01857,0.03
71,1.41909,1468.74,1.01893,0.03
72,1.41834,3642.63,1.01929,0.03
73,1.41684,1068.99,1.01966,0.03
74,1.4166,12285.6,1.02002,0.03
75,1.4153,2094.52,1.02039,0.03
76,1.41306,1504.66,1.02076,0.03
77,1.4117,2186.39,1.02113,0.03
78,1.41148,1733.1,1.0215,0.03
79,1.409,2553.9,1.02187,0.03
80,1.40902,3383.48,1.02224,0.03
81,1.40705,2455.01,1.02261,0.03
82,1.40632,1104.64,1.02298,0.03
83,1.40462,1286.18,1.02336,0.03
84,1.40313,1121.47,1.02373,0.03
85,1.4034,13967.3,1.02411,0.03
86,1.40083,2060.23,1.02449,0.03
87,1.40072,9563.39,1.02486,0.03
88,1.4011,14074.3,1.02524,0.03
89,1.40051,3022.26,1.02562,0.03
90,1.39963,2953.51,1.026,0.03
91,1.39706,1162.71,1.02638,0.03
92,1.39693,15464.2,1.02677,0.03
93,1.39582,36340.9,1.02715,0.03
94,1.39581,4558.25,1.02754,0.03
95,1.39486,924.338,1.02792,0.03
96,1.39561,25063,1.02831,0.03
97,1.39147,1357.13,1.02869,0.03
98,1.39179,6423.46,1.02908,0.03
99,1.38861,571.987,1.02947,0.03
100,1.38751,1227.07,1.02986,0.03
101,1.38724,3590.06,1.03024,0.03
102,1.38501,1619.39,1.03063,0.03
103,1.38489,2494.51,1.03102,0.03
104,1.38467,11915.1,1.03141,0.03
105,1.38028,1457.37,1.03181,0.03
106,1.38037,2939.26,1.0322,0.03
107,1.38149,3177.69,1.03259,0.03
108,1.38106,1636.1,1.03298,0.03
109,1.38104,5317.55,1.03338,0.03
110,1.38161,4574,1.03377,0.03
111,1.38091,4106.52,1.03416,0.03
112,1.37821,541.29,1.03456,0.03
113,1.37744,2283.45,1.03495,0.03
114,1.37681,1501.17,1.03535,0.03
115,1.3764,1341.58,1.03574,0.03
116,1.37329,600.575,1.03614,0.03
117,1.37217,1197.96,1.03653,0.03
118,1.37195,8863.63,1.03693,0.03
119,1.37121,4135.26,1.03733,0.03
120,1.36987,30284.1,1.03773,0.03
121,1.36846,4359.43,1.03813,0.03
122,1.36727,1617.08,1.03853,0.03
123,1.36608,1239.63,1.03893,0.03
124,1.36561,2069.48,1.03933,0.03
125,1.3663,2646.32,1.03973,0.03
126,1.36652,2854.74,1.04013,0.03
127,1.36725,2006.02,1.04053,0.03
128,1.36626,6526.94,1.04093,0.03
129,1.36623,2630.54,1.04134,0.03
130,1.36498,1033.84,1.04174,0.03
131,1.36287,855.122,1.04214,0.03
132,1.36323,145363,1.04255,0.03
133,1.36341,4163.39,1.04295,0.03
134,1.36224,9439.19,1.04336,0.03
135,1.36211,76103.8,1.04376,0.03
136,1.36016,1500.64,1.04417,0.03
137,1.35754,651.774,1.04458,0.03
138,1.35647,1180.91,1.04499,0.03
139,1.35532,2144.38,1.04539,0.03
140,1.35536,1839.64,1.0458,0.03
141,1.35369,1562.88,1.04621,0.03
142,1.35117,4691.51,1.04662,0.03
143,1.35265,21135.7,1.04703,0.03
144,1.35197,954.821,1.04744,0.03
145,1.3513,3635.64,1.04785,0.03
146,1.35004,1708.47,1.04826,0.03
147,1.34849,918.422,1.04867,0.03
148,1.34605,563.481,1.04908,0.03
149,1.34712,4385.63,1.04949,0.03
150,1.34906,3556.79,1.04991,0.03
151,1.34767,1054.17,1.05032,0.03
152,1.34713,2110.36,1.05073,0.03
153,1.34631,2401.41,1.05114,0.03
154,1.3455,1657.96,1.05156,0.03
155,1.34421,1045.28,1.05197,0.03
156,1.34419,2031.54,1.05239,0.03
157,1.34337,1298.14,1.0528,0.03
158,1.34189,634.255,1.05322,0.03
159,1.34123,2392.39,1.05363,0.03
160,1.34108,1634.73,1.05405,0.03
161,1.33858,1207.33,1.05447,0.03
162,1.33924,1963.66,1.05488,0.03
163,1.33641,702.108,1.0553,0.03
164,1.33651,2601.13,1.05572,0.03
165,1.33547,1672.59,1.05613,0.03
166,1.33611,2830.23,1.05655,0.03
167,1.33703,3093.96,1.05697,0.03
168,1.33755,2528.91,1.05739,0.03
169,1.33543,1394.83,1.05781,0.03
170,1.33373,1036.87,1.05823,0.03
171,1.3339,5293.13,1.05865,0.03
172,1.33411,4659.57,1.05907,0.03
173,1.33383,1124.37,1.05949,0.03
174,1.33251,1528.31,1.05991,0.03
175,1.33226,1681.6,1.06034,0.03
176,1.33126,864.355,1.06076,0.03
177,1.32875,4530.96,1.06118,0.03
178,1.32947,3568.76,1.06161,0.03
179,1.32888,9324.8,1.06203,0.03
180,1.32831,1476.38,1.06246,0.03
181,1.32678,758.957,1.06288,0.03
182,1.3242,1162.18,1.06331,0.03
183,1.32112,851.641,1.06373,0.03
184,1.31935,5780.56,1.06416,0.03
185,1.31878,5062.87,1.06458,0.03
186,1.31844,1373.63,1.06501,0.03
187,1.31677,1127.85,1.06544,0.03
188,1.31645,1108.59,1.06587,0.03
189,1.3135,1149.49,1.06629,0.03
190,1.31607,3897.36,1.06672,0.03
191,1.31465,4629.53,1.06715,0.03
192,1.31532,2315.02,1.06758,0.03
193,1.3162,1880.98,1.06801,0.03
194,1.31433,1077.57,1.06843,0.03
195,1.31111,718,1.06886,0.03
196,1.31161,363409,1.06929,0.03
197,1.31203,5820.66,1.06972,0.03
198,1.31366,9833.89,1.07015,0.03
199,1.31417,3198.22,1.07058,0.03
200,1.31156,515.336,1.07101,0.03
201,1.31283,1318.01,1.07144,0.03
202,1.31481,2338.48,1.07187,0.03
203,1.31429,6213.96,1.0723,0.03
204,1.31287,973.123,1.07273,0.03
205,1.31281,8863.65,1.07317,0.03
206,1.31476,3590.34,1.0736,0.03
207,1.31537,5965.72,1.07403,0.03
208,1.3129,1168.89,1.07447,0.03
209,1.31049,1011.19,1.0749,0.03
210,1.30867,2115.45,1.07533,0.03
211,1.30705,989.944,1.07577,0.03
212,1.30815,7572.27,1.0762,0.03
213,1.30972,877.904,1.07664,0.03
214,1.30827,1116.17,1.07707,0.03
215,1.3091,2752.32,1.07751,0.03
216,1.30849,1230.8,1.07794,0.03
217,1.31049,145363,1.07838,0.03
218,1.31161,10688.5,1.07882,0.03
219,1.31123,2183.02,1.07925,0.03
220,1.31049,1092.67,1.07969,0.03
221,1.3077,507.423,1.08013,0.03
222,1.30815,6143.09,1.08057,0.03
223,1.30651,1276.12,1.08101,0.03
224,1.30441,2929.98,1.08145,0.03
225,1.3028,1123.87,1.08188,0.03
226,1.30197,3283.07,1.08232,0.03
227,1.29979,505.442,1.08276,0.03
228,1.2986,1874.44,1.0832,0.03
229,1.30136,11945.2,1.08364,0.03
230,1.30152,1728.31,1.08408,0.03
231,1.29921,604.468,1.08452,0.03
232,1.29866,2633.84,1.08496,0.03
233,1.29913,6552.83,1.08541,0.03
234,1.29893,1619.41,1.08585,0.03
235,1.30012,2322.11,1.08629,0.03
236,1.3004,1652.2,1.08673,0.03
237,1.30066,16902.8,1.08717,0.03
238,1.30162,1749.84,1.08761,0.03
239,1.30144,9318.61,1.08806,0.03
240,1.29994,619.379,1.0885,0.03
241,1.30038,1571.6,1.08894,0.03
242,1.30058,3296.75,1.08939,0.03
243,1.30103,2974.59,1.08983,0.03
244,1.29673,729.448,1.09027,0.03
245,1.29555,2741.92,1.09072,0.03
246,1.29653,8351.78,1.09116,0.03
247,1.29575,740.076,1.09161,0.03
248,1.2962,4460.89,1.09205,0.03
249,1.29721,4059.64,1.0925,0.03
250,1.2962,2024.48,1.09294,0.03
251,1.29562,1427.09,1.09339,0.03
252,1.29519,3088.96,1.09384,0.03
253,1.29445,1223.7,1.09428,0.03
254,1.29192,911.331,1.09473,0.03
255,1.29109,1159.95,1.09518,0.03
256,1.29179,1256.8,1.09562,0.03
257,1.29014,957.793,1.09607,0.03
258,1.29014,1392.76,1.09652,0.03
259,1.29096,2001.22,1.09697,0.03
260,1.29154,2287.72,1.09742,0.03
261,1.29156,1167.45,1.09786,0.03
262,1.2924,2107.23,1.09831,0.03
263,1.29331,1235.29,1.09876,0.03
264,1.29545,2341.64,1.09921,0.03
265,1.2928,1234.21,1.09966,0.03
266,1.29171,3984.91,1.10011,0.03
267,1.29262,4125.71,1.10056,0.03
268,1.29024,5909.09,1.10101,0.03
269,1.29078,1617.26,1.10146,0.03
270,1.29119,2806.57,1.10191,0.03
271,1.28844,883.743,1.10236,0.03
272,1.28686,926.528,1.10281,0.03
273,1.28399,639.076,1.10326,0.03
274,1.28457,2512.85,1.10371,0.03
275,1.27845,387.716,1.10417,0.03
276,1.27946,1543.55,1.10462,0.03
277,1.28008,3343.56,1.10507,0.03
278,1.28075,1522.39,1.10552,0.03
279,1.27915,1482.71,1.10597,0.03
280,1.28027,1641.11,1.10643,0.03
281,1.28255,1535.05,1.10688,0.03
282,1.28251,1980.52,1.10733,0.03
283,1.28073,803.256,1.10779,0.03
284,1.28174,6773.54,1.10824,0.03
285,1.27961,746.581,1.1087,0.03
286,1.27855,994.05,1.10915,0.03
287,1.27888,2208.32,1.10961,0.03
288,1.27841,1949.95,1.11006,0.03
289,1.27805,1041.8,1.11052,0.03
290,1.27751,2575.1,1.11097,0.03
291,1.2783,1903.95,1.11143,0.03
292,1.27812,1551.61,1.11188,0.03
293,1.27411,643.883,1.11234,0.03
294,1.27521,2035.04,1.1128,0.03
295,1.2745,1374.66,1.11325,0.03
296,1.2757,9474.79,1.11371,0.03
297,1.27414,1061.04,1.11416,0.03
298,1.27479,1048.05,1.11462,0.03
299,1.27584,1988.08,1.11508,0.03
300,1.27325,514.2,1.11554,0.03
301,1.27415,2072.63,1.11599,0.03
302,1.27344,1965.29,1.11645,0.03
303,1.27144,4719.64,1.11691,0.03
304,1.26739,770.684,1.11737,0.03
305,1.26478,811.028,1.11783,0.03
306,1.26592,3498.32,1.11828,0.03
307,1.26499,999.262,1.11874,0.03
308,1.26602,18170.4,1.1192,0.03
309,1.26765,2045.87,1.11966,0.03
310,1.26797,1345.71,1.12012,0.03
311,1.26955,1550.48,1.12058,0.03
312,1.26827,1729.86,1.12104,0.03
313,1.26849,6400.79,1.1215,0.03
314,1.26599,933.515,1.12196,0.03
315,1.26398,9200.22,1.12242,0.03
316,1.26544,8553.38,1.12288,0.03
317,1.26583,15464.2,1.12334,0.03
318,1.26499,1313.41,1.12381,0.03
319,1.26358,19126.8,1.12427,0.03
320,1.26245,760.961,1.12473,0.03
321,1.26316,979.914,1.12519,0.03
322,1.26611,9807.06,1.12565,0.03
323,1.26695,2026.87,1.12612,0.03
324,1.26339,864.77,1.12658,0.03
325,1.26087,1524.87,1.12704,0.03
326,1.26208,1790.24,1.12751,0.03
327,1.26195,1133.25,1.12797,0.03
328,1.26049,3514.27,1.12844,0.03
329,1.26011,2378.76,1.1289,0.03
330,1.25815,939.194,1.12937,0.03
331,1.25706,958.532,1.12983,0.03
332,1.25494,627.125,1.1303,0.03
333,1.25587,1782.07,1.13076,0.03
334,1.2564,2131.86,1.13123,0.03
335,1.25753,1976.52,1.13169,0.03
336,1.2552,1420.61,1.13216,0.03
337,1.25556,5241.84,1.13263,0.03
338,1.25538,31600.8,1.13309,0.03
339,1.25661,6033.05,1.13356,0.03
340,1.25775,29072.7,1.13402,0.03
341,1.25758,1278.11,1.13449,0.03
342,1.25599,2758.9,1.13496,0.03
343,1.25486,2118.61,1.13543,0.03
344,1.25583,1360.16,1.13589,0.03
345,1.25744,5063.78,1.13636,0.03
346,1.25664,885.046,1.13683,0.03
347,1.25718,16910.5,1.1373,0.03
348,1.25766,3149.17,1.13777,0.03
349,1.25683,1753.64,1.13824,0.03
350,1.25556,2450.61,1.13871,0.03
351,1.25489,2168.37,1.13917,0.03
352,1.25511,4838.87,1.13964,0.03
353,1.25497,998.507,1.14011,0.03
354,1.25289,2144.66,1.14059,0.03
355,1.25129,719.011,1.14106,0.03
356,1.25204,1876.78,1.14153,0.03
357,1.25229,1735.58,1.142,0.03
358,1.24999,849.798,1.14247,0.03
359,1.249,1422.42,1.14294,0.03
360,1.24946,1267.42,1.14341,0.03
361,1.25014,983.476,1.14389,0.03
362,1.25188,29072.7,1.14436,0.03
363,1.25144,993.616,1.14483,0.03
364,1.25232,4779.39,1.14531,0.03
365,1.25389,3949.69,1.14578,0.03
366,1.25373,2441.83,1.14625,0.03
367,1.25147,693.988,1.14673,0.03
368,1.24787,526.112,1.1472,0.03
369,1.24827,4991.3,1.14768,0.03
370,1.24992,2501.5,1.14815,0.03
371,1.24861,1057.13,1.14863,0.03
372,1.24849,1240.75,1.1491,0.03
373,1.24886,2317.16,1.14958,0.03
374,1.24609,2712.01,1.15005,0.03
375,1.24512,693.948,1.15053,0.03
376,1.24445,872.817,1.151,0.03
377,1.24446,1912.64,1.15148,0.03
378,1.24234,565.782,1.15196,0.03
379,1.24194,786.039,1.15244,0.03
380,1.2441,3155.04,1.15291,0.03
381,1.24302,672.639,1.15339,0.03
382,1.24384,3976.24,1.15387,0.03
383,1.24462,1965.99,1.15435,0.03
384,1.24459,2487.65,1.15482,0.03
385,1.24217,575.241,1.1553,0.03
386,1.24377,3811.53,1.15578,0.03
387,1.24179,2724.3,1.15626,0.03
388,1.24406,1732.76,1.15674,0.03
389,1.24273,3523.96,1.15722,0.03
390,1.24496,4284.37,1.1577,0.03
391,1.24542,1774.84,1.15818,0.03
392,1.24513,2136.65,1.15866,0.03
393,1.24344,712.022,1.15914,0.03
394,1.24156,831.861,1.15962,0.03
395,1.24216,1240.26,1.1601,0.03
396,1.24521,17331,1.16058,0.03
397,1.24433,703.481,1.16106,0.03
398,1.24241,4605.06,1.16154,0.03
399,1.24502,1295.99,1.16202,0.03
400,1.24741,1270.19,1.1625,0.03
401,1.24753,1112.08,1.16298,0.03
402,1.24482,1460.93,1.16346,0.03
403,1.24021,555.636,1.16394,0.03
404,1.23956,2204.34,1.16442,0.03
405,1.23732,1304.88,1.1649,0.03
406,1.23856,2295.05,1.16539,0.03
407,1.23885,5306.87,1.16587,0.03
408,1.23855,2207.45,1.16635,0.03
409,1.23803,2411.19,1.16683,0.03
410,1.24023,2396.73,1.16732,0.03
411,1.23887,3523.47,1.1678,0.03
412,1.23873,1159.46,1.16828,0.03
413,1.23653,857.148,1.16877,0.03
414,1.23736,1516.18,1.16925,0.03
415,1.2365,10094.7,1.16973,0.03
416,1.23663,1258.27,1.17022,0.03
417,1.23286,660.761,1.1707,0.03
418,1.23261,1320.1,1.17118,0.03
419,1.23317,1111.05,1.17167,0.03
420,1.23404,4259.33,1.17215,0.03
421,1.23579,2235.72,1.17264,0.03
422,1.23717,1894.83,1.17313,0.03
423,1.23857,1293.7,1.17361,0.03
424,1.23518,698.357,1.1741,0.03
425,1.23455,2542.95,1.17459,0.03
426,1.23339,780.542,1.17507,0.03
427,1.23459,6959.62,1.17556,0.03
428,1.23584,10399.1,1.17605,0.03
429,1.23547,983.36,1.17653,0.03
430,1.23774,13869.1,1.17702,0.03
431,1.23985,13995.8,1.17751,0.03
432,1.24129,24227.4,1.178,0.03
433,1.24176,1767.84,1.17848,0.03
434,1.23994,1222.58,1.17897,0.03
435,1.24234,7305.85,1.17946,0.03
436,1.2436,8555,1.17995,0.03
437,1.24272,1511.7,1.18043,0.03
438,1.24527,3836.26,1.18092,0.03
439,1.24253,3501.41,1.18141,0.03
440,1.24584,2977.65,1.1819,0.03
441,1.2442,7795.25,1.18239,0.03
442,1.2422,2115.26,1.18288,0.03
443,1.24142,928.295,1.18337,0.03
444,1.24064,11013.9,1.18386,0.03
445,1.23998,1890.54,1.18435,0.03
446,1.2384,1203.33,1.18484,0.03
447,1.23771,1074.32,1.18533,0.03
448,1.23985,48615.5,1.18582,0.03
449,1.24093,981.764,1.18631,0.03
450,1.24286,181704,1.1868,0.03
451,1.2438,6231.17,1.18729,0.03
452,1.24358,4475.74,1.18779,0.03
453,1.24279,2225.33,1.18828,0.03
454,1.24267,2779.21,1.18877,0.03
455,1.24273,867.432,1.18926,0.03
456,1.24272,1449.48,1.18976,0.03
457,1.24103,2375.69,1.19025,0.03
458,1.24102,1610.05,1.19075,0.03
459,1.24004,15466.6,1.19124,0.03
460,1.24044,1080.51,1.19173,0.03
461,1.24198,2269.41,1.19223,0.03
462,1.2415,1300.29,1.19272,0.03
463,1.24126,5723.33,1.19322,0.03
464,1.24129,2987.25,1.19371,0.03
465,1.24165,2125.77,1.19421,0.03
466,1.24161,1149.05,1.19471,0.03
467,1.24141,748.555,1.1952,0.03
468,1.24151,5056.87,1.1957,0.03
469,1.24275,1399.8,1.19619,0.03
470,1.24096,707.755,1.19669,0.03
471,1.2431,3256.81,1.19718,0.03
472,1.24309,2582.33,1.19768,0.03
473,1.24286,712.658,1.19817,0.03
474,1.24117,1133.07,1.19867,0.03
475,1.24106,1058.39,1.19917,0.03
476,1.23846,887.655,1.19966,0.03
477,1.23771,2634.07,1.20016,0.03
478,1.23719,1738.26,1.20066,0.03
479,1.23802,3480.18,1.20116,0.03
480,1.23546,693.863,1.20165,0.03
481,1.23483,1105.68,1.20215,0.03
482,1.23555,6931.42,1.20265,0.03
483,1.23494,1167.35,1.20315,0.03
484,1.23297,657.501,1.20365,0.03
485,1.23084,1000.46,1.20415,0.03
486,1.22919,3216.04,1.20465,0.03
487,1.23009,1951.41,1.20515,0.03
488,1.22867,909.593,1.20565,0.03
489,1.22899,1251.94,1.20614,0.03
490,1.23057,954.34,1.20664,0.03
491,1.23106,1898.75,1.20714,0.03
492,1.23049,1704.2,1.20764,0.03
493,1.22806,821.963,1.20814,0.03
494,1.22874,103831,1.20864,0.03
495,1.22658,854.811,1.20914,0.03
496,1.22558,1379.88,1.20964,0.03
497,1.22613,7754.43,1.21015,0.03
498,1.22598,6960.12,1.21065,0.03
499,1.22538,3005.59,1.21115,0.03
500,1.22641,2392.85,1.21165,0.03
501,1.22775,2515.77,1.21215,0.03
502,1.22762,1250.96,1.21265,0.03
503,1.2257,475.924,1.21316,0.03
504,1.22399,6843.47,1.21366,0.03
505,1.22254,1421.6,1.21416,0.03
506,1.2222,973.384,1.21466,0.03
507,1.22111,491.488,1.21517,0.03
508,1.22049,803.215,1.21567,0.03
509,1.21892,626.347,1.21618,0.03
510,1.21764,739.875,1.21668,0.03
511,1.21613,712.585,1.21718,0.03
512,1.21383,891.215,1.21769,0.03
513,1.21347,984.017,1.21819,0.03
514,1.21572,1229.81,1.2187,0.03
515,1.21426,1524.86,1.2192,0.03
516,1.21399,810.169,1.21971,0.03
517,1.21239,3017.1,1.22022,0.03
518,1.21307,3421.75,1.22072,0.03
519,1.21455,2057.96,1.22123,0.03
520,1.2142,6856.78,1.22173,0.03
521,1.21427,21239.1,1.22224,0.03
522,1.21154,668.424,1.22274,0.03
523,1.2109,3432.71,1.22325,0.03
524,1.2104,1321.81,1.22376,0.03
525,1.21203,2158.03,1.22427,0.03
526,1.21055,953.553,1.22477,0.03
527,1.2103,38253.5,1.22528,0.03
528,1.20886,697.355,1.22579,0.03
529,1.20657,504.543,1.22629,0.03
530,1.2054,1794.54,1.2268,0.03
531,1.2041,5470.02,1.22731,0.03
532,1.2067,4691.44,1.22782,0.03
533,1.20737,1637.44,1.22833,0.03
534,1.20796,10849.8,1.22883,0.03
535,1.20846,11552.7,1.22934,0.03
536,1.20669,3971.75,1.22985,0.03
537,1.20643,721.649,1.23036,0.03
538,1.20372,709.254,1.23087,0.03
539,1.20121,3853.76,1.23138,0.03
540,1.19873,1114.43,1.23189,0.03
541,1.19559,823.077,1.2324,0.03
542,1.19545,1534.19,1.23291,0.03
543,1.19577,17173.2,1.23342,0.03
544,1.19719,4931.42,1.23393,0.03
545,1.1948,3845.6,1.23444,0.03
546,1.19401,1214.92,1.23495,0.03
547,1.19396,2762.51,1.23546,0.03
548,1.19471,22024.9,1.23597,0.03
549,1.19182,985.861,1.23649,0.03
550,1.19417,34850.1,1.237,0.03
551,1.19517,3102.6,1.23751,0.03
552,1.19472,1365.09,1.23802,0.03
553,1.19545,898.135,1.23854,0.03
554,1.19367,532.021,1.23905,0.03
555,1.18985,383.904,1.23956,0.03
556,1.18832,870.902,1.24008,0.03
557,1.18791,813.782,1.24059,0.03
558,1.18556,598.001,1.2411,0.03
559,1.18413,5552.29,1.24162,0.03
560,1.18229,599.014,1.24213,0.03
561,1.18398,12151.9,1.24265,0.03
562,1.1833,796.73,1.24316,0.03
563,1.18458,1254.19,1.24368,0.03
564,1.18085,412.711,1.24419,0.03
565,1.18,568.059,1.24471,0.03
566,1.17916,616.919,1.24523,0.03
567,1.18099,2485.07,1.24574,0.03
568,1.17943,940.738,1.24626,0.03
569,1.18081,4416.14,1.24678,0.03
570,1.17921,620.779,1.24729,0.03
571,1.17718,844.341,1.24781,0.03
572,1.17673,3028.27,1.24833,0.03
573,1.17707,2397.35,1.24885,0.03
574,1.17678,794.66,1.24936,0.03
575,1.17744,2079.42,1.24988,0.03
576,1.17475,414.576,1.2504,0.03
577,1.17364,1220.29,1.25092,0.03
578,1.17145,569.416,1.25144,0.03
579,1.17259,826.372,1.25196,0.03
580,1.17546,6585.04,1.25248,0.03
581,1.17388,1158.25,1.253,0.03
582,1.17058,38253.5,1.25352,0.03
583,1.16857,1294.23,1.25404,0.03
584,1.17012,1472.59,1.25456,0.03
585,1.17152,1177.26,1.25508,0.03
586,1.17171,1746.29,1.2556,0.03
587,1.17326,4317.27,1.25612,0.03
588,1.17352,1915.53,1.25664,0.03
589,1.17455,25062.7,1.25716,0.03
590,1.17528,4405.48,1.25768,0.03
591,1.17672,2597.04,1.25821,0.03
592,1.17655,1088.91,1.25873,0.03
593,1.1771,1459.86,1.25925,0.03
594,1.17736,1143.69,1.25978,0.03
595,1.17912,4271.05,1.2603,0.03
596,1.18308,12130.5,1.26083,0.03
597,1.18305,728.799,1.26135,0.03
598,1.18473,72681.7,1.26187,0.03
599,1.18534,2191.75,1.2624,0.03
600,1.18259,723.725,1.26292,0.03
601,1.18147,1349.35,1.26344,0.03
602,1.18104,2143.83,1.26397,0.03
603,1.18059,1128.11,1.26449,0.03
604,1.18111,1533.14,1.26502,0.03
605,1.18305,5464.9,1.26554,0.03
606,1.18173,827.26,1.26607,0.03
607,1.18014,1263.13,1.2666,0.03
608,1.17856,938.58,1.26712,0.03
609,1.17726,758.336,1.26765,0.03
610,1.17852,12701,1.26818,0.03
611,1.1772,1647.8,1.2687,0.03
612,1.17409,355.167,1.26923,0.03
613,1.17339,923.761,1.26976,0.03
