step,energy,beta,lambda,delta
0,1.52939,1997.3,1,0.03
1,1.52603,1991.85,0.99954,0.03
2,1.52376,5008.1,0.999354,0.03
3,1.52183,1614.71,0.999286,0.03
4,1.52008,1459.36,0.999289,0.03
5,1.51759,3268.28,0.999337,0.03
6,1.51631,3893.06,0.999419,0.03
7,1.51471,1735.13,0.999527,0.03
8,1.51209,8454.01,0.999663,0.03
9,1.51023,2901.75,0.999817,0.03
10,1.50926,2276.05,0.999987,0.03
11,1.50769,2327.87,1.00017,0.03
12,1.50584,2099.39,1.00037,0.03
13,1.50436,2133.56,1.00057,0.03
14,1.50294,1916.37,1.00079,0.03
15,1.5017,1855.21,1.00101,0.03
16,1.49911,2003.77,1.00125,0.03
17,1.4981,181704,1.00149,0.03
18,1.49674,11731.7,1.00174,0.03
19,1.49564,2707.57,1.00199,0.03
20,1.49473,5177.54,1.00225,0.03
21,1.49305,1772.86,1.00251,0.03
22,1.4915,1864.69,1.00278,0.03
23,1.48991,4302.26,1.00305,0.03
24,1.48812,1484.76,1.00333,0.03
25,1.487,6668.28,1.00361,0.03
26,1.48592,8760.74,1.00389,0.03
27,1.4841,1841.42,1.00418,0.03
28,1.48273,1375.93,1.00446,0.03
29,1.4805,750.548,1.00476,0.03
30,1.47902,2293.01,1.00505,0.03
31,1.47592,932.447,1.00535,0.03
32,1.47331,1866.49,1.00566,0.03
33,1.47185,2087.78,1.00596,0.03
34,1.47097,2014.19,1.00627,0.03
35,1.47053,73255.5,1.00658,0.03
36,1.46838,1249.69,1.00689,0.03
37,1.46677,3813.88,1.00721,0.03
38,1.46602,9285.9,1.00753,0.03
39,1.46347,1637.36,1.00785,0.03
40,1.46254,2869.86,1.00818,0.03
41,1.46121,2994.71,1.0085,0.03
42,1.45802,1724.18,1.00883,0.03
43,1.4568,1211.84,1.00916,0.03
44,1.45641,2362.76,1.00949,0.03
45,1.45525,2039.38,1.00982,0.03
46,1.45487,6798.19,1.01015,0.03
47,1.45411,11723,1.01049,0.03
48,1.45274,1327.92,1.01082,0.03
49,1.45252,1657.4,1.01116,0.03
50,1.45119,1104.67,1.0115,0.03
51,1.45091,2838.86,1.01185,0.03
52,1.44945,4130.7,1.01219,0.03
53,1.44687,1196.82,1.01253,0.03
54,1.44788,9360.14,1.01288,0.03
55,1.44655,1299.43,1.01323,0.03
56,1.44521,1763.3,1.01358,0.03
57,1.44365,25113.3,1.01393,0.03
58,1.44084,1351.78,1.01428,0.03
59,1.43825,2143.56,1.01463,0.03
60,1.43817,12834.9,1.01499,0.03
61,1.43731,15845.2,1.01534,0.03
62,1.43633,1447.14,1.0157,0.03
63,1.43374,6162.6,1.01606,0.03
64,1.43127,1934.45,1.01642,0.03
65,1.43127,2723.49,1.01678,0.03
66,1.43015,1643.76,1.01714,0.03
67,1.42885,3901.6,1.0175,0.03
68,1.42661,1719.45,1.01786,0.03
69,1.42539,3087.32,1.01823,0.03
70,1.42465,1175.29,1.01859,0.03
71,1.4227,2651.51,1.01896,0.03
72,1.42016,5231.19,1.01933,0.03
73,1.42039,5164.71,1.0197,0.03
74,1.4186,1011.54,1.02006,0.03
75,1.41668,1939.85,1.02043,0.03
76,1.41525,1257.7,1.02081,0.03
77,1.41251,823.78,1.02118,0.03
78,1.4106,833.323,1.02155,0.03
79,1.40734,771.909,1.02192,0.03
80,1.40682,1802.84,1.0223,0.03
81,1.40823,4748.47,1.02267,0.03
82,1.4097,242272,1.02305,0.03
83,1.40854,16695.3,1.02343,0.03
84,1.40495,824.889,1.02381,0.03
85,1.40263,1031.65,1.02418,0.03
86,1.4042,90852.2,1.02456,0.03
87,1.40342,4185.74,1.02494,0.03
88,1.40276,2830.37,1.02532,0.03
89,1.40192,33037.3,1.02571,0.03
90,1.39966,785.456,1.02609,0.03
91,1.39703,2209.88,1.02647,0.03
92,1.39776,11390.5,1.02686,0.03
93,1.39565,1638.72,1.02724,0.03
94,1.39531,4239.6,1.02763,0.03
95,1.39334,886.817,1.02801,0.03
96,1.39181,2041.52,1.0284,0.03
97,1.39036,1854.73,1.02878,0.03
98,1.38752,810.539,1.02917,0.03
99,1.38685,7270.92,1.02955,0.03
100,1.38475,696.917,1.02994,0.03
101,1.38446,2373.56,1.03033,0.03
102,1.38169,1058.89,1.03072,0.03
103,1.38108,2404.11,1.03111,0.03
104,1.38131,11915.3,1.0315,0.03
105,1.37926,781.587,1.03189,0.03
106,1.3793,5861.74,1.03228,0.03
107,1.37994,2938.97,1.03268,0.03
108,1.37793,5217.32,1.03307,0.03
109,1.37782,2303.22,1.03347,0.03
110,1.37542,7900.19,1.03386,0.03
111,1.37506,7704.89,1.03426,0.03
112,1.37496,3084.88,1.03465,0.03
113,1.37568,4530.77,1.03505,0.03
114,1.37374,1209.61,1.03545,0.03
115,1.37447,2617.26,1.03585,0.03
116,1.37414,2511.21,1.03624,0.03
117,1.37632,4215.35,1.03664,0.03
118,1.3751,1268.18,1.03704,0.03
119,1.37517,2552.35,1.03744,0.03
120,1.37396,1838.03,1.03784,0.03
121,1.3749,4497.47,1.03824,0.03
122,1.37402,1144.4,1.03864,0.03
123,1.37325,1368.35,1.03905,0.03
124,1.37262,1781.33,1.03945,0.03
125,1.37204,2445.79,1.03985,0.03
126,1.3715,5821.03,1.04026,0.03
127,1.37039,2063.15,1.04066,0.03
128,1.36954,40917.8,1.04106,0.03
129,1.36939,1626.73,1.04147,0.03
130,1.36758,8635.38,1.04188,0.03
131,1.36565,1204.28,1.04228,0.03
132,1.3644,1970.35,1.04269,0.03
133,1.36199,1198.45,1.0431,0.03
134,1.36057,29072.7,1.0435,0.03
135,1.35825,751.644,1.04391,0.03
136,1.35735,1417.73,1.04432,0.03
137,1.35477,1594.86,1.04473,0.03
138,1.35463,1684.76,1.04514,0.03
139,1.35225,981.28,1.04555,0.03
140,1.35027,803.342,1.04596,0.03
141,1.34836,1342.39,1.04637,0.03
142,1.34578,2978.87,1.04679,0.03
143,1.34503,6942.81,1.0472,0.03
144,1.34067,503.289,1.04761,0.03
145,1.34072,2714.78,1.04802,0.03
146,1.33735,1274.21,1.04844,0.03
147,1.33613,873.794,1.04885,0.03
148,1.33525,1095.24,1.04926,0.03
149,1.3331,861.126,1.04968,0.03
150,1.33202,1018.11,1.05009,0.03
151,1.33152,4813.24,1.05051,0.03
152,1.33175,9981.03,1.05092,0.03
153,1.33113,3309.36,1.05134,0.03
154,1.33321,8231.23,1.05176,0.03
155,1.33261,1030.66,1.05217,0.03
156,1.33107,1068.37,1.05259,0.03
157,1.33073,1777.41,1.053,0.03
158,1.33253,66074.3,1.05342,0.03
159,1.33356,1283.87,1.05384,0.03
160,1.33319,8740.85,1.05426,0.03
161,1.3329,1460.34,1.05468,0.03
162,1.33386,7276.88,1.05509,0.03
163,1.3323,9318.2,1.05551,0.03
164,1.33032,42754,1.05593,0.03
165,1.33069,1434.98,1.05635,0.03
166,1.32894,966.839,1.05677,0.03
167,1.32741,2315.58,1.05719,0.03
168,1.32528,1316.61,1.05761,0.03
169,1.3253,4079.74,1.05803,0.03
170,1.32462,923.719,1.05846,0.03
171,1.32468,979.55,1.05888,0.03
172,1.32667,7168.25,1.0593,0.03
173,1.32501,730.221,1.05972,0.03
174,1.32229,674.723,1.06014,0.03
175,1.31988,1052.1,1.06057,0.03
176,1.31937,980.534,1.06099,0.03
177,1.31632,677.044,1.06142,0.03
178,1.31716,16876.7,1.06184,0.03
179,1.31918,2269.92,1.06226,0.03
180,1.31954,22024.8,1.06269,0.03
181,1.3184,1262.12,1.06312,0.03
182,1.31817,3651.27,1.06354,0.03
183,1.31695,1120.53,1.06397,0.03
184,1.31486,581.1,1.06439,0.03
185,1.31586,12935.2,1.06482,0.03
186,1.31611,933.606,1.06525,0.03
187,1.31823,1956.9,1.06568,0.03
188,1.31831,2657.68,1.0661,0.03
189,1.31636,1387.58,1.06653,0.03
190,1.31432,242272,1.06696,0.03
191,1.31413,3461.73,1.06739,0.03
192,1.31052,910.606,1.06782,0.03
193,1.30833,1973.72,1.06825,0.03
194,1.31022,3476.51,1.06868,0.03
195,1.30967,1170.54,1.06911,0.03
196,1.30793,825.668,1.06954,0.03
197,1.30864,12309.4,1.06997,0.03
198,1.30667,4038.67,1.0704,0.03
199,1.30559,7942.79,1.07083,0.03
200,1.30502,3984.29,1.07126,0.03
201,1.30412,794.017,1.0717,0.03
202,1.30315,2109.1,1.07213,0.03
203,1.30138,994.269,1.07256,0.03
204,1.30344,3554.14,1.07299,0.03
205,1.30228,1957.67,1.07343,0.03
206,1.30201,4002.5,1.07386,0.03
207,1.30327,4749.37,1.07429,0.03
208,1.30349,1415.79,1.07473,0.03
209,1.30339,966.285,1.07516,0.03
210,1.30289,17305.2,1.07559,0.03
211,1.29909,1788.11,1.07603,0.03
212,1.29869,23445.7,1.07646,0.03
213,1.29733,1332.91,1.0769,0.03
214,1.2982,4157.2,1.07734,0.03
215,1.29703,1579.26,1.07777,0.03
216,1.29532,1984.9,1.07821,0.03
217,1.29578,2547.37,1.07865,0.03
218,1.2918,1598.49,1.07908,0.03
219,1.29122,66074.3,1.07952,0.03
220,1.29198,2641.27,1.07996,0.03
221,1.29002,1069.2,1.0804,0.03
222,1.28985,2097.02,1.08083,0.03
223,1.2875,470.435,1.08127,0.03
224,1.28881,1887.29,1.08171,0.03
225,1.28794,1442.51,1.08215,0.03
226,1.28877,5865.64,1.08259,0.03
227,1.28743,1516.47,1.08303,0.03
228,1.28937,2158.31,1.08347,0.03
229,1.2895,1520.87,1.08391,0.03
230,1.28956,3351.09,1.08435,0.03
231,1.29011,8354.24,1.08479,0.03
232,1.28977,4377.04,1.08523,0.03
233,1.29044,2851.47,1.08567,0.03
234,1.28967,1157.9,1.08611,0.03
235,1.28969,6190.15,1.08655,0.03
236,1.28959,7534.13,1.08699,0.03
237,1.29035,7965.69,1.08744,0.03
238,1.28901,22713,1.08788,0.03
239,1.28697,1106.11,1.08832,0.03
240,1.28648,1361.96,1.08877,0.03
241,1.28551,1084.2,1.08921,0.03
242,1.28479,3269.82,1.08966,0.03
243,1.28276,1040.52,1.0901,0.03
244,1.28286,792.977,1.09055,0.03
245,1.28316,1691.61,1.09099,0.03
246,1.28123,854.531,1.09144,0.03
247,1.28401,2875.7,1.09188,0.03
248,1.28279,997.966,1.09233,0.03
249,1.28227,858.917,1.09278,0.03
250,1.2811,25062.7,1.09322,0.03
251,1.28309,30975.1,1.09367,0.03
252,1.28164,737.027,1.09412,0.03
253,1.28193,3418.65,1.09456,0.03
254,1.28096,1144.55,1.09501,0.03
255,1.28037,726817,1.09546,0.03
256,1.27999,1173.78,1.0959,0.03
257,1.2797,2425.44,1.09635,0.03
258,1.28037,4388.77,1.0968,0.03
259,1.27847,871.477,1.09725,0.03
260,1.27863,2876.94,1.0977,0.03
261,1.27492,863.915,1.09815,0.03
262,1.27494,5450.94,1.09859,0.03
263,1.27475,925.059,1.09904,0.03
264,1.2746,2427.8,1.09949,0.03
265,1.27493,2117.63,1.09994,0.03
266,1.27636,2411.05,1.10039,0.03
267,1.2764,9597.68,1.10084,0.03
268,1.2764,1418.7,1.10129,0.03
269,1.27747,1562.51,1.10174,0.03
270,1.2751,662.908,1.10219,0.03
271,1.27426,793.124,1.10265,0.03
272,1.27279,657.164,1.1031,0.03
273,1.27277,7416.86,1.10355,0.03
274,1.27223,12318.9,1.104,0.03
275,1.27247,1790.19,1.10445,0.03
276,1.27164,1743.82,1.10491,0.03
277,1.27013,992.421,1.10536,0.03
278,1.26906,1711.68,1.10581,0.03
279,1.27118,10590,1.10627,0.03
280,1.27007,1045.75,1.10672,0.03
281,1.26964,1221.98,1.10717,0.03
282,1.27093,7714.35,1.10763,0.03
283,1.27208,726817,1.10808,0.03
284,1.27442,12711.9,1.10854,0.03
285,1.27323,836.956,1.10899,0.03
286,1.2728,819.063,1.10945,0.03
287,1.2735,2043.24,1.10991,0.03
288,1.27149,900.41,1.11036,0.03
289,1.26869,901.135,1.11082,0.03
290,1.26736,1947.12,1.11128,0.03
291,1.26591,809.704,1.11173,0.03
292,1.2641,906.229,1.11219,0.03
293,1.26192,1532.68,1.11265,0.03
294,1.26112,1905.64,1.11311,0.03
295,1.25964,1397.58,1.11356,0.03
296,1.262,3575.16,1.11402,0.03
297,1.26044,922.077,1.11448,0.03
298,1.26116,1489.28,1.11494,0.03
299,1.25896,1305.63,1.1154,0.03
300,1.25946,103831,1.11585,0.03
301,1.25982,14536.3,1.11631,0.03
302,1.25976,815.452,1.11677,0.03
303,1.26018,2429.21,1.11723,0.03
304,1.25898,1271.02,1.11769,0.03
305,1.25839,1313.94,1.11815,0.03
306,1.25694,1030.71,1.11861,0.03
307,1.25722,1459.25,1.11907,0.03
308,1.25364,1153.53,1.11953,0.03
309,1.25409,903.294,1.11999,0.03
310,1.25206,583.027,1.12045,0.03
311,1.25184,989.415,1.12091,0.03
312,1.252,3354.69,1.12137,0.03
313,1.25198,1530.87,1.12183,0.03
314,1.25117,1157.02,1.12229,0.03
315,1.25073,1323.54,1.12275,0.03
316,1.25094,3700.89,1.12322,0.03
317,1.24818,1504.52,1.12368,0.03
318,1.2483,1512.14,1.12414,0.03
319,1.24828,4004.99,1.1246,0.03
320,1.2504,2364.05,1.12506,0.03
321,1.25253,1245.31,1.12552,0.03
322,1.25377,3496.97,1.12599,0.03
323,1.25529,2080.96,1.12645,0.03
324,1.25444,21690.6,1.12691,0.03
325,1.25541,4261.75,1.12737,0.03
326,1.25494,1095.16,1.12784,0.03
327,1.25504,3507.43,1.1283,0.03
328,1.25605,1085.04,1.12876,0.03
329,1.25572,5659.12,1.12923,0.03
330,1.25545,781.409,1.12969,0.03
331,1.25534,820.735,1.13015,0.03
332,1.25227,48454.5,1.13062,0.03
333,1.25496,16151.5,1.13108,0.03
334,1.255,2128.62,1.13155,0.03
335,1.25546,14312.6,1.13201,0.03
336,1.25431,665.897,1.13248,0.03
337,1.25496,8746.96,1.13295,0.03
338,1.25507,80757.5,1.13341,0.03
339,1.25409,820.844,1.13388,0.03
340,1.2527,3260.31,1.13434,0.03
341,1.25019,938.192,1.13481,0.03
342,1.24753,1198.71,1.13528,0.03
343,1.24752,2116.52,1.13575,0.03
344,1.24663,7196.21,1.13621,0.03
345,1.24744,34818.7,1.13668,0.03
346,1.24656,4282.88,1.13715,0.03
347,1.24758,2299.28,1.13762,0.03
348,1.24547,1805.18,1.13809,0.03
349,1.24362,1495.32,1.13856,0.03
350,1.246,16159.1,1.13903,0.03
351,1.2444,783.662,1.13949,0.03
352,1.24317,1716.61,1.13996,0.03
353,1.23941,821.78,1.14043,0.03
354,1.23945,732.422,1.1409,0.03
355,1.24073,1608.32,1.14138,0.03
356,1.24115,1645.72,1.14185,0.03
357,1.24014,1656.78,1.14232,0.03
358,1.23972,1437.35,1.14279,0.03
359,1.23653,590.955,1.14326,0.03
360,1.23547,2932.04,1.14373,0.03
361,1.23504,1215.12,1.1442,0.03
362,1.23595,4086.2,1.14468,0.03
363,1.23705,2417.78,1.14515,0.03
364,1.2361,799.564,1.14562,0.03
365,1.23896,2409.54,1.1461,0.03
366,1.23559,535.028,1.14657,0.03
367,1.23492,1924.42,1.14704,0.03
368,1.23126,883.132,1.14752,0.03
369,1.23074,9574.69,1.14799,0.03
370,1.22937,24227.9,1.14846,0.03
371,1.23084,6857.57,1.14894,0.03
372,1.22564,470.159,1.14942,0.03
373,1.22347,1656.47,1.14989,0.03
374,1.22225,1816.87,1.15037,0.03
375,1.22235,862.603,1.15084,0.03
376,1.2227,6730.4,1.15132,0.03
377,1.22581,4206.32,1.1518,0.03
378,1.22379,4504.76,1.15227,0.03
379,1.22428,5268.52,1.15275,0.03
380,1.22236,553.588,1.15323,0.03
381,1.22052,775.57,1.1537,0.03
382,1.22001,926.928,1.15418,0.03
383,1.22145,2867.28,1.15466,0.03
384,1.22322,1513.84,1.15513,0.03
385,1.21836,455.082,1.15561,0.03
386,1.22127,3056.82,1.15609,0.03
387,1.2243,2143.18,1.15656,0.03
388,1.22411,1160.84,1.15704,0.03
389,1.22122,553.142,1.15752,0.03
390,1.21799,504.948,1.158,0.03
391,1.21396,883.689,1.15847,0.03
392,1.2157,6441.37,1.15895,0.03
393,1.21688,11182.3,1.15943,0.03
394,1.21733,2180.54,1.15991,0.03
395,1.2186,4105.98,1.16039,0.03
396,1.2184,3765.84,1.16087,0.03
397,1.21728,1123.04,1.16135,0.03
398,1.2156,741.165,1.16182,0.03
399,1.21936,5256.04,1.1623,0.03
400,1.21692,807.613,1.16278,0.03
401,1.22058,3515.71,1.16326,0.03
402,1.21916,701.68,1.16375,0.03
403,1.21837,974.396,1.16423,0.03
404,1.21717,2128.87,1.16471,0.03
405,1.21986,2045.18,1.16519,0.03
406,1.2223,901.059,1.16567,0.03
407,1.22302,2047.93,1.16615,0.03
408,1.22366,1888.51,1.16664,0.03
409,1.22391,2950.03,1.16712,0.03
410,1.22516,1169.93,1.1676,0.03
411,1.2255,738.481,1.16808,0.03
412,1.22588,1775.61,1.16857,0.03
413,1.22722,1304.41,1.16905,0.03
414,1.23015,11722.9,1.16954,0.03
415,1.22854,694.039,1.17002,0.03
416,1.22888,34610.4,1.17051,0.03
417,1.22795,660.099,1.17099,0.03
418,1.22938,7900.2,1.17148,0.03
419,1.22929,2875.12,1.17196,0.03
420,1.22843,1061.71,1.17245,0.03
421,1.22868,5167.17,1.17293,0.03
422,1.22677,734.913,1.17342,0.03
423,1.22902,4264.64,1.1739,0.03
424,1.2275,765.882,1.17439,0.03
425,1.22694,779.908,1.17488,0.03
426,1.22565,718.705,1.17536,0.03
427,1.22426,1098.65,1.17585,0.03
428,1.22329,1208.79,1.17634,0.03
429,1.2238,5087.98,1.17682,0.03
430,1.22054,670.321,1.17731,0.03
431,1.22162,11181.8,1.1778,0.03
432,1.22008,923.286,1.17829,0.03
433,1.21346,380.408,1.17878,0.03
434,1.21122,1061.47,1.17927,0.03
435,1.21245,1272.94,1.17976,0.03
436,1.21263,90852.2,1.18025,0.03
437,1.21085,1643.55,1.18074,0.03
438,1.21119,4611.05,1.18123,0.03
439,1.20785,790.637,1.18172,0.03
440,1.20898,3508.85,1.18221,0.03
441,1.20965,942.243,1.1827,0.03
442,1.21115,2781.93,1.18319,0.03
443,1.21217,1915.92,1.18368,0.03
444,1.21168,1454.08,1.18417,0.03
445,1.21083,1057.52,1.18467,0.03
446,1.21041,938.222,1.18516,0.03
447,1.205,532.056,1.18565,0.03
448,1.20437,1347.98,1.18614,0.03
449,1.2047,26987.6,1.18663,0.03
450,1.20405,1157.64,1.18712,0.03
451,1.20218,1574.33,1.18762,0.03
452,1.20081,18170.4,1.18811,0.03
453,1.20087,1479.41,1.1886,0.03
454,1.20193,1109.55,1.18909,0.03
455,1.20442,7517.81,1.18959,0.03
456,1.20627,2489.88,1.19008,0.03
457,1.20565,1265.36,1.19057,0.03
458,1.20499,871.658,1.19106,0.03
459,1.20531,5823.33,1.19156,0.03
460,1.20878,20201.9,1.19205,0.03
461,1.20974,3125.01,1.19254,0.03
462,1.21067,3710.28,1.19304,0.03
463,1.2098,9200.79,1.19353,0.03
464,1.21072,2009,1.19402,0.03
465,1.20961,1450.69,1.19452,0.03
466,1.20802,716.475,1.19502,0.03
467,1.20392,1870.48,1.19551,0.03
468,1.2016,650.007,1.19601,0.03
469,1.20288,4034.92,1.1965,0.03
470,1.20374,1674.86,1.197,0.03
471,1.20012,1253.58,1.1975,0.03
472,1.19872,863.611,1.19799,0.03
473,1.19586,1897.66,1.19849,0.03
474,1.19434,948.959,1.19899,0.03
475,1.1907,471.825,1.19949,0.03
476,1.18925,1531.78,1.19999,0.03
477,1.19172,1485.5,1.20048,0.03
478,1.18862,506.463,1.20098,0.03
479,1.18956,716.124,1.20148,0.03
480,1.19287,3521.98,1.20198,0.03
481,1.19323,1556.08,1.20248,0.03
482,1.19273,969.571,1.20298,0.03
483,1.19575,7126.23,1.20348,0.03
484,1.19456,734.515,1.20398,0.03
485,1.19188,738.326,1.20448,0.03
486,1.19208,1117.32,1.20498,0.03
487,1.19095,23445.7,1.20548,0.03
488,1.18683,583.538,1.20598,0.03
489,1.1901,145363,1.20648,0.03
490,1.18991,1857.25,1.20699,0.03
491,1.18842,996.695,1.20749,0.03
492,1.1901,2012.79,1.20799,0.03
493,1.19006,1658.76,1.20849,0.03
494,1.19275,9675.26,1.20899,0.03
495,1.19504,4235.55,1.2095,0.03
496,1.19194,543.28,1.21,0.03
497,1.19172,11013.8,1.21051,0.03
498,1.19306,1933.35,1.21101,0.03
499,1.19335,857.865,1.21151,0.03
500,1.19492,2132.62,1.21202,0.03
501,1.19462,1800.92,1.21252,0.03
502,1.19534,3390.43,1.21303,0.03
503,1.1945,884.947,1.21353,0.03
504,1.19283,864.575,1.21403,0.03
505,1.19389,620.011,1.21454,0.03
506,1.1918,790.219,1.21505,0.03
507,1.1929,912.396,1.21555,0.03
508,1.19227,1157.82,1.21606,0.03
509,1.18979,555.531,1.21656,0.03
510,1.18911,1955.31,1.21707,0.03
511,1.18571,496.679,1.21757,0.03
512,1.18249,1436.28,1.21808,0.03
513,1.18225,816.332,1.21859,0.03
514,1.18337,4396.61,1.21909,0.03
515,1.18319,2337.37,1.2196,0.03
516,1.18226,1284.48,1.22011,0.03
517,1.18322,2803,1.22062,0.03
518,1.18282,1298.74,1.22112,0.03
519,1.18192,2036.93,1.22163,0.03
520,1.18089,1365.12,1.22214,0.03
521,1.18058,662.048,1.22265,0.03
522,1.17822,1254.87,1.22316,0.03
523,1.18083,14536.4,1.22366,0.03
524,1.18073,951.797,1.22417,0.03
525,1.17941,1992.25,1.22468,0.03
526,1.17889,825.777,1.22519,0.03
527,1.17931,1318.2,1.2257,0.03
528,1.1755,451.718,1.22621,0.03
529,1.17548,943.754,1.22672,0.03
530,1.17389,3718.65,1.22723,0.03
531,1.17497,2699.49,1.22774,0.03
532,1.17525,1148.83,1.22825,0.03
533,1.17529,802.782,1.22876,0.03
534,1.17584,2369.28,1.22927,0.03
535,1.17777,6670.25,1.22978,0.03
536,1.18018,5486.21,1.2303,0.03
537,1.18029,3097.1,1.23081,0.03
538,1.18173,2360.63,1.23132,0.03
539,1.18123,1143.21,1.23183,0.03
540,1.17857,624.21,1.23234,0.03
541,1.1767,1122.31,1.23285,0.03
542,1.17736,1861.43,1.23337,0.03
543,1.17461,671.467,1.23388,0.03
544,1.17438,784.68,1.23439,0.03
545,1.17528,2306.58,1.23491,0.03
546,1.17584,1202.13,1.23542,0.03
547,1.17668,1294.42,1.23593,0.03
548,1.17626,954.099,1.23645,0.03
549,1.17718,1186.17,1.23696,0.03
550,1.1776,1688.76,1.23748,0.03
551,1.18048,3550.65,1.23799,0.03
552,1.18067,1107.01,1.23851,0.03
553,1.17886,839.75,1.23902,0.03
554,1.17797,989.887,1.23954,0.03
555,1.18063,2006.08,1.24005,0.03
556,1.17914,780.629,1.24057,0.03
557,1.17986,2600.41,1.24108,0.03
558,1.17907,787.343,1.2416,0.03
559,1.18042,5915.74,1.24211,0.03
560,1.17985,1314.05,1.24263,0.03
561,1.17899,38253.5,1.24315,0.03
562,1.18008,16518.6,1.24366,0.03
563,1.17776,954.818,1.24418,0.03
564,1.17676,578.471,1.24469,0.03
565,1.1785,3994,1.24521,0.03
566,1.18109,8175.14,1.24573,0.03
567,1.18471,8200.02,1.24624,0.03
568,1.18318,2082.93,1.24676,0.03
569,1.18203,1065.62,1.24728,0.03
570,1.1834,1214.96,1.2478,0.03
571,1.18171,1933.02,1.24831,0.03
572,1.18013,724.97,1.24883,0.03
573,1.17828,808.754,1.24935,0.03
574,1.17853,1724.28,1.24987,0.03
575,1.17579,533.259,1.25038,0.03
576,1.175,704.056,1.2509,0.03
577,1.17626,1356.44,1.25142,0.03
578,1.17536,523.385,1.25194,0.03
579,1.17185,414.428,1.25246,0.03
580,1.1688,636.456,1.25298,0.03
581,1.16834,1675.4,1.2535,0.03
582,1.16902,1503,1.25402,0.03
583,1.17011,2793.47,1.25454,0.03
584,1.16835,651.938,1.25506,0.03
585,1.17022,13358.2,1.25558,0.03
586,1.1681,1531.8,1.2561,0.03
587,1.17039,4345,1.25662,0.03
588,1.17231,3806.95,1.25715,0.03
589,1.17228,673.767,1.25767,0.03
590,1.17344,1426.68,1.25819,0.03
591,1.17274,725.182,1.25871,0.03
592,1.17401,9212.37,1.25924,0.03
593,1.17497,1496.77,1.25976,0.03
594,1.17694,1604.1,1.26028,0.03
595,1.17749,2727.21,1.26081,0.03
596,1.17648,884.809,1.26133,0.03
597,1.17655,1120.1,1.26185,0.03
598,1.1754,2756.47,1.26238,0.03
599,1.17697,6211.97,1.2629,0.03
600,1.17576,819.46,1.26343,0.03
601,1.17583,1370.36,1.26395,0.03
602,1.17816,1953.93,1.26447,0.03
603,1.17819,1205.38,1.265,0.03
604,1.18045,18636.3,1.26552,0.03
605,1.17562,363.016,1.26605,0.03
606,1.17726,9282.09,1.26657,0.03
607,1.17833,1347.91,1.2671,0.03
608,1.18167,2667.78,1.26762,0.03
609,1.18352,1313.43,1.26815,0.03
610,1.18692,4500.3,1.26867,0.03
611,1.18622,17305.2,1.2692,0.03
612,1.18535,1012.77,1.26972,0.03
613,1.18393,1241.26,1.27025,0.03
614,1.18451,3559.46,1.27078,0.03
