step,energy,beta,lambda,delta
0,1.52907,342.279,1,0.03
1,1.52734,1589.98,0.99954,0.03
2,1.52574,2704.8,0.999365,0.03
3,1.52318,2057.76,0.999306,0.03
4,1.5203,6547.92,0.999308,0.03
5,1.51816,1777.53,0.999359,0.03
6,1.51645,48454.5,0.999455,0.03
7,1.51485,7734.12,0.999583,0.03
8,1.51301,2269.24,0.99973,0.03
9,1.51022,9089.72,0.999893,0.03
10,1.50746,2069.1,1.00007,0.03
11,1.50606,3103.85,1.00025,0.03
12,1.50428,11957.6,1.00044,0.03
13,1.50295,5328.92,1.00064,0.03
14,1.50173,1698.18,1.00086,0.03
15,1.50015,16990.9,1.00107,0.03
16,1.49862,2729.24,1.0013,0.03
17,1.49574,1194.76,1.00153,0.03
18,1.49473,1658.79,1.00177,0.03
19,1.49199,1168.54,1.00202,0.03
20,1.49039,1286.05,1.00227,0.03
21,1.4885,1507.25,1.00253,0.03
22,1.48711,2542.82,1.0028,0.03
23,1.48545,3431.53,1.00306,0.03
24,1.48452,4754.63,1.00334,0.03
25,1.48359,3119.64,1.00361,0.03
26,1.48201,2188.38,1.00389,0.03
27,1.48089,5931.76,1.00417,0.03
28,1.47944,2624.28,1.00446,0.03
29,1.47941,13948.8,1.00475,0.03
30,1.47912,10469.4,1.00505,0.03
31,1.47714,1249.52,1.00534,0.03
32,1.47658,13529.6,1.00564,0.03
33,1.47465,7390.84,1.00595,0.03
34,1.47477,4375.72,1.00625,0.03
35,1.47318,4541.96,1.00656,0.03
36,1.47148,6422.74,1.00687,0.03
37,1.47091,2260.12,1.00718,0.03
38,1.47048,4039.51,1.00749,0.03
39,1.468,1107.12,1.00781,0.03
40,1.46618,1862.69,1.00813,0.03
41,1.46487,7748.11,1.00845,0.03
42,1.46306,18170.4,1.00878,0.03
43,1.46222,1438.16,1.0091,0.03
44,1.46225,4773.58,1.00943,0.03
45,1.46138,4098.89,1.00976,0.03
46,1.45902,10688.5,1.0101,0.03
47,1.45769,1812.39,1.01043,0.03
48,1.45677,36340.9,1.01077,0.03
49,1.45462,1579.47,1.01111,0.03
50,1.45289,1225,1.01145,0.03
51,1.45283,16608.9,1.01179,0.03
52,1.45143,2673.62,1.01213,0.03
53,1.4507,5877.61,1.01248,0.03
54,1.45033,4444.52,1.01283,0.03
55,1.44931,2011.86,1.01317,0.03
56,1.44726,1247.31,1.01352,0.03
57,1.44499,66074.3,1.01387,0.03
58,1.44566,6413.54,1.01423,0.03
59,1.44357,1395.7,1.01458,0.03
60,1.44168,1169.46,1.01493,0.03
61,1.44201,9990.29,1.01529,0.03
62,1.44112,3037.48,1.01565,0.03
63,1.44001,3253.52,1.01601,0.03
64,1.44143,55088.2,1.01637,0.03
65,1.43995,1675.69,1.01673,0.03
66,1.43759,1284.35,1.01709,0.03
67,1.43545,2468.54,1.01745,0.03
68,1.43364,1811.83,1.01781,0.03
69,1.43316,3725.62,1.01818,0.03
70,1.43377,3869.41,1.01854,0.03
71,1.43355,5820.2,1.01891,0.03
72,1.43242,7669.06,1.01928,0.03
73,1.43197,726817,1.01965,0.03
74,1.43098,1847.59,1.02002,0.03
75,1.43112,3159.85,1.02039,0.03
76,1.42936,5511.88,1.02076,0.03
77,1.42945,2601.98,1.02114,0.03
78,1.42863,1806.93,1.02151,0.03
79,1.42902,2335.45,1.02189,0.03
80,1.42818,3197.89,1.02226,0.03
81,1.42617,824.867,1.02264,0.03
82,1.42531,5931.67,1.02302,0.03
83,1.42434,1821.83,1.0234,0.03
84,1.42411,1319.15,1.02378,0.03
85,1.42519,30861.1,1.02416,0.03
86,1.42493,3751.33,1.02454,0.03
87,1.4237,1379.13,1.02492,0.03
88,1.42267,2056.83,1.0253,0.03
89,1.42176,17305.3,1.02568,0.03
90,1.42132,3289.78,1.02607,0.03
91,1.41976,33037.2,1.02645,0.03
92,1.42028,4177.79,1.02684,0.03
93,1.42027,4019.34,1.02722,0.03
94,1.41871,7492.97,1.02761,0.03
95,1.4193,29072.7,1.028,0.03
96,1.41823,2145.43,1.02839,0.03
97,1.41759,10691.2,1.02878,0.03
98,1.41686,3972.71,1.02917,0.03
99,1.41788,3285.64,1.02956,0.03
100,1.41783,25957.8,1.02995,0.03
101,1.41653,3004.08,1.03034,0.03
102,1.4175,4819.1,1.03073,0.03
103,1.41446,2543.84,1.03112,0.03
104,1.41335,3044.67,1.03151,0.03
105,1.4136,1842.32,1.03191,0.03
106,1.4122,1248.58,1.0323,0.03
107,1.41106,1348.31,1.03269,0.03
108,1.40981,7417.93,1.03309,0.03
109,1.40808,1303.63,1.03348,0.03
110,1.40665,1854.93,1.03388,0.03
111,1.40607,3359.98,1.03428,0.03
112,1.40474,1184.54,1.03467,0.03
113,1.40358,2545.33,1.03507,0.03
114,1.40161,4201.3,1.03547,0.03
115,1.40078,5430.57,1.03587,0.03
116,1.40086,1277.64,1.03626,0.03
117,1.40112,1535.3,1.03666,0.03
118,1.40101,2904.31,1.03706,0.03
119,1.40127,1887.9,1.03746,0.03
120,1.39994,2981.01,1.03787,0.03
121,1.39878,1990.4,1.03827,0.03
122,1.39812,1353.93,1.03867,0.03
123,1.39745,4153.22,1.03907,0.03
124,1.39589,964.468,1.03948,0.03
125,1.39326,1297.49,1.03988,0.03
126,1.39289,2691.46,1.04028,0.03
127,1.39317,1125.62,1.04069,0.03
128,1.39298,90852.2,1.04109,0.03
129,1.39177,1629.94,1.0415,0.03
130,1.39197,13379.2,1.0419,0.03
131,1.39033,2189.47,1.04231,0.03
132,1.39037,2462.92,1.04271,0.03
133,1.38807,3083.69,1.04312,0.03
134,1.38903,6882.16,1.04353,0.03
135,1.38762,1305.43,1.04394,0.03
136,1.38692,363409,1.04434,0.03
137,1.38711,2587.61,1.04475,0.03
138,1.38596,2026.48,1.04516,0.03
139,1.38488,1198.79,1.04557,0.03
140,1.38275,684.74,1.04598,0.03
141,1.38174,1648.1,1.04639,0.03
142,1.38274,15370.9,1.0468,0.03
143,1.38088,2664.1,1.04721,0.03
144,1.38145,2328.37,1.04763,0.03
145,1.38096,2636.84,1.04804,0.03
146,1.37989,1128.39,1.04845,0.03
147,1.37997,3854.84,1.04886,0.03
148,1.37974,1169.78,1.04928,0.03
149,1.37959,12319.1,1.04969,0.03
150,1.3803,40378.7,1.05011,0.03
151,1.38166,5092.7,1.05052,0.03
152,1.38297,5294.6,1.05094,0.03
153,1.38274,3392.8,1.05135,0.03
154,1.38351,1020.44,1.05177,0.03
155,1.38224,2548.94,1.05219,0.03
156,1.38142,2349.09,1.0526,0.03
157,1.38277,3745.48,1.05302,0.03
158,1.38295,3041.96,1.05344,0.03
159,1.38386,4638.19,1.05386,0.03
160,1.3836,8453.82,1.05428,0.03
161,1.38262,1532.02,1.05469,0.03
162,1.38074,145363,1.05511,0.03
163,1.38045,9692.53,1.05553,0.03
164,1.37941,2287.84,1.05595,0.03
165,1.37602,666.203,1.05638,0.03
166,1.37386,877.46,1.0568,0.03
167,1.37387,2017.58,1.05722,0.03
168,1.37467,3185.83,1.05764,0.03
169,1.3744,6500.5,1.05806,0.03
170,1.37368,15206.2,1.05849,0.03
171,1.37266,6288.98,1.05891,0.03
172,1.3711,2971.54,1.05933,0.03
173,1.36951,6066.4,1.05976,0.03
174,1.36888,1407.68,1.06018,0.03
175,1.36617,759.501,1.0606,0.03
176,1.36499,1439.76,1.06103,0.03
177,1.36156,464.009,1.06145,0.03
178,1.36167,30284.8,1.06188,0.03
179,1.36066,2739.37,1.06231,0.03
180,1.35766,1853.89,1.06273,0.03
181,1.35492,940.965,1.06316,0.03
182,1.35596,2359.86,1.06358,0.03
183,1.356,1415.52,1.06401,0.03
184,1.35483,60568.1,1.06444,0.03
185,1.35535,16576.6,1.06487,0.03
186,1.35517,2225.49,1.06529,0.03
187,1.35579,5832.44,1.06572,0.03
188,1.35757,3572.16,1.06615,0.03
189,1.35791,1918.61,1.06658,0.03
190,1.35712,1988.41,1.06701,0.03
191,1.35772,2241.65,1.06744,0.03
192,1.35429,836.046,1.06787,0.03
193,1.35361,26533.9,1.0683,0.03
194,1.35298,2307.53,1.06873,0.03
195,1.35107,781.821,1.06916,0.03
196,1.35111,1870.59,1.06959,0.03
197,1.3521,2761.92,1.07002,0.03
198,1.3523,11014.7,1.07045,0.03
199,1.35053,1068.4,1.07089,0.03
200,1.34902,1219.82,1.07132,0.03
201,1.34666,1979.7,1.07175,0.03
202,1.3456,1457.64,1.07219,0.03
203,1.34494,4583.61,1.07262,0.03
204,1.34362,879.111,1.07305,0.03
205,1.34197,884.187,1.07349,0.03
206,1.34187,1252.81,1.07392,0.03
207,1.34068,1185.91,1.07435,0.03
208,1.34022,4039.05,1.07479,0.03
209,1.34049,6427.56,1.07523,0.03
210,1.33971,3408.24,1.07566,0.03
211,1.33697,866.842,1.0761,0.03
212,1.33661,3493.04,1.07653,0.03
213,1.33625,2527.05,1.07697,0.03
214,1.33647,4128.14,1.0774,0.03
215,1.33599,1203.09,1.07784,0.03
216,1.33631,20189.4,1.07828,0.03
217,1.33763,9236.34,1.07871,0.03
218,1.33566,675.424,1.07915,0.03
219,1.33481,1548.76,1.07959,0.03
220,1.33485,3220.63,1.08002,0.03
221,1.33206,592.865,1.08046,0.03
222,1.33048,1938.92,1.0809,0.03
223,1.33055,972.49,1.08133,0.03
224,1.33053,1482.67,1.08177,0.03
225,1.33073,1642.77,1.08221,0.03
226,1.3308,1115.19,1.08265,0.03
227,1.32909,1008.31,1.08309,0.03
228,1.32821,2250.58,1.08353,0.03
229,1.32659,913.494,1.08397,0.03
230,1.32742,1457.76,1.0844,0.03
231,1.32696,2058.97,1.08484,0.03
232,1.32686,7254.01,1.08528,0.03
233,1.32451,1120.33,1.08572,0.03
234,1.32319,8259.29,1.08616,0.03
235,1.32375,14542.9,1.08661,0.03
236,1.32304,1059.19,1.08705,0.03
237,1.32112,840.288,1.08749,0.03
238,1.32335,7927.75,1.08793,0.03
239,1.32082,711.678,1.08837,0.03
240,1.32028,1440.72,1.08882,0.03
241,1.31949,1440.96,1.08926,0.03
242,1.31911,4134.82,1.0897,0.03
243,1.31961,7817.09,1.09015,0.03
244,1.31968,1698.33,1.09059,0.03
245,1.32031,2003.85,1.09103,0.03
246,1.32059,7740.54,1.09148,0.03
247,1.32223,3533.57,1.09192,0.03
248,1.31944,937.567,1.09237,0.03
249,1.31792,899.009,1.09281,0.03
250,1.31616,792.484,1.09326,0.03
251,1.31582,1448.79,1.0937,0.03
252,1.31665,5073.07,1.09415,0.03
253,1.31641,1295.37,1.09459,0.03
254,1.31559,1682.14,1.09504,0.03
255,1.31656,2522.8,1.09548,0.03
256,1.3162,2184.79,1.09593,0.03
257,1.31405,2530.64,1.09638,0.03
258,1.31315,3207.91,1.09682,0.03
259,1.31384,2616.26,1.09727,0.03
260,1.31177,1426.39,1.09772,0.03
261,1.31113,1374.82,1.09816,0.03
262,1.31023,3075.8,1.09861,0.03
263,1.31094,2045.56,1.09906,0.03
264,1.30711,579.854,1.09951,0.03
265,1.30559,978.113,1.09996,0.03
266,1.30579,3182.03,1.10041,0.03
267,1.30549,1607.28,1.10086,0.03
268,1.30456,6204.57,1.10131,0.03
269,1.30503,2629.39,1.10176,0.03
270,1.30485,2496.99,1.10221,0.03
271,1.30543,1735.73,1.10266,0.03
272,1.30511,1425.35,1.10311,0.03
273,1.3028,6266.01,1.10356,0.03
274,1.30082,655.918,1.10401,0.03
275,1.29761,525.165,1.10447,0.03
276,1.29623,919.055,1.10492,0.03
277,1.29254,677.738,1.10537,0.03
278,1.29192,2678.51,1.10583,0.03
279,1.29191,2549.04,1.10628,0.03
280,1.29029,831.537,1.10673,0.03
281,1.28974,1072.04,1.10719,0.03
282,1.28995,1923.96,1.10764,0.03
283,1.29033,4724.74,1.1081,0.03
284,1.29208,2417.49,1.10855,0.03
285,1.29133,776.385,1.109,0.03
286,1.28927,915.608,1.10946,0.03
287,1.28998,1052.02,1.10992,0.03
288,1.28854,3311.17,1.11037,0.03
289,1.28634,1096.56,1.11083,0.03
290,1.28711,2013.62,1.11128,0.03
291,1.28549,1465.29,1.11174,0.03
292,1.28258,624.273,1.1122,0.03
293,1.28179,1111.84,1.11265,0.03
294,1.28025,738.363,1.11311,0.03
295,1.28181,42754,1.11357,0.03
296,1.28106,965.871,1.11402,0.03
297,1.28028,5571.32,1.11448,0.03
298,1.27884,880.42,1.11494,0.03
299,1.27553,612.815,1.1154,0.03
300,1.27427,8462.26,1.11586,0.03
301,1.27375,2832.31,1.11632,0.03
302,1.27062,1114.58,1.11678,0.03
303,1.27189,2777.11,1.11724,0.03
304,1.27154,1753.34,1.1177,0.03
305,1.26904,570.768,1.11816,0.03
306,1.26905,4513.95,1.11862,0.03
307,1.26914,1377.33,1.11908,0.03
308,1.26685,744.569,1.11954,0.03
309,1.26761,4309.35,1.12001,0.03
310,1.26535,6265.67,1.12047,0.03
311,1.2643,988,1.12093,0.03
312,1.265,19643.7,1.12139,0.03
313,1.26612,4636.22,1.12185,0.03
314,1.26546,1673.15,1.12232,0.03
315,1.26621,2268.72,1.12278,0.03
316,1.26675,1811.76,1.12324,0.03
317,1.26693,2630.83,1.1237,0.03
318,1.26674,2355.65,1.12417,0.03
319,1.2674,3672.8,1.12463,0.03
320,1.2667,3382.43,1.12509,0.03
321,1.26677,1539.29,1.12556,0.03
322,1.26755,181704,1.12602,0.03
323,1.26685,958.218,1.12648,0.03
324,1.26795,4173.48,1.12695,0.03
325,1.26657,959.285,1.12741,0.03
326,1.26633,5711.21,1.12788,0.03
327,1.26145,566.92,1.12834,0.03
328,1.26287,17413,1.12881,0.03
329,1.26285,2053.46,1.12927,0.03
330,1.26317,4270.7,1.12974,0.03
331,1.26169,3692.71,1.1302,0.03
332,1.26365,2650.59,1.13067,0.03
333,1.26423,4327.43,1.13114,0.03
334,1.26417,1311.42,1.1316,0.03
335,1.25954,581.37,1.13207,0.03
336,1.25967,2808.62,1.13254,0.03
337,1.26162,80757.5,1.133,0.03
338,1.26216,1079.93,1.13347,0.03
339,1.26104,1279.09,1.13394,0.03
340,1.26148,2777.58,1.13441,0.03
341,1.26228,4099.82,1.13487,0.03
342,1.26115,878.34,1.13534,0.03
343,1.25824,912.442,1.13581,0.03
344,1.25748,641.153,1.13628,0.03
345,1.25873,3463.87,1.13674,0.03
346,1.25986,1552,1.13721,0.03
347,1.25989,1398.5,1.13768,0.03
348,1.25843,951.497,1.13815,0.03
349,1.26,3061.4,1.13862,0.03
350,1.2607,2352.11,1.13909,0.03
351,1.26024,1025.37,1.13956,0.03
352,1.25964,19126.8,1.14003,0.03
353,1.2591,1094.21,1.1405,0.03
354,1.25753,2509.93,1.14097,0.03
355,1.25369,415.888,1.14144,0.03
356,1.25448,14251.3,1.14191,0.03
357,1.25076,841.769,1.14238,0.03
358,1.24541,550.171,1.14285,0.03
359,1.24371,1847.08,1.14332,0.03
360,1.24366,1038.94,1.14379,0.03
361,1.24356,636.037,1.14426,0.03
362,1.24373,2339.55,1.14473,0.03
363,1.24511,2185.69,1.1452,0.03
364,1.24548,1266.67,1.14567,0.03
365,1.24705,10265.9,1.14615,0.03
366,1.24419,1812.71,1.14662,0.03
367,1.24227,684.164,1.14709,0.03
368,1.24225,968.152,1.14756,0.03
369,1.24077,2121.78,1.14804,0.03
370,1.23604,1557.23,1.14851,0.03
371,1.2386,2343.14,1.14898,0.03
372,1.23737,768.237,1.14946,0.03
373,1.2376,1803.96,1.14993,0.03
374,1.23638,2135.06,1.1504,0.03
375,1.23517,795.982,1.15088,0.03
376,1.23522,40409.3,1.15135,0.03
377,1.23148,422.433,1.15183,0.03
378,1.23146,1414.15,1.1523,0.03
379,1.23305,9692.51,1.15278,0.03
380,1.23546,12318.9,1.15325,0.03
381,1.23213,560.698,1.15373,0.03
382,1.23525,16947.2,1.15421,0.03
383,1.2357,889.026,1.15468,0.03
384,1.23371,1018.82,1.15516,0.03
385,1.23437,16268.9,1.15564,0.03
386,1.23483,768.354,1.15611,0.03
387,1.23518,3070.73,1.15659,0.03
388,1.23464,866.166,1.15707,0.03
389,1.23322,3601.07,1.15755,0.03
390,1.23164,605.566,1.15802,0.03
391,1.23133,1648.27,1.1585,0.03
392,1.22882,691.75,1.15898,0.03
393,1.22783,1104.53,1.15946,0.03
394,1.23038,3884.87,1.15994,0.03
395,1.22969,1251.2,1.16042,0.03
396,1.23035,1935.19,1.1609,0.03
397,1.23166,27954.5,1.16138,0.03
398,1.22918,479.568,1.16186,0.03
399,1.22872,1037,1.16234,0.03
400,1.23093,2213.33,1.16282,0.03
401,1.23239,2156.46,1.1633,0.03
402,1.23189,831.976,1.16379,0.03
403,1.23033,585.588,1.16427,0.03
404,1.22922,3396.62,1.16475,0.03
405,1.23067,3744.88,1.16523,0.03
406,1.23065,1409.24,1.16571,0.03
407,1.23044,1291.98,1.1662,0.03
408,1.23081,36340.9,1.16668,0.03
409,1.22935,988.757,1.16716,0.03
410,1.22807,2178.53,1.16765,0.03
411,1.22865,5013.48,1.16813,0.03
412,1.2253,646.7,1.16861,0.03
413,1.2272,3785.07,1.1691,0.03
414,1.2291,8166.57,1.16958,0.03
415,1.22717,937.116,1.17007,0.03
416,1.22693,3450.94,1.17055,0.03
417,1.22897,2395,1.17103,0.03
418,1.22598,2287.29,1.17152,0.03
419,1.22228,624.469,1.172,0.03
420,1.2223,60568.1,1.17249,0.03
421,1.22085,1196.2,1.17297,0.03
422,1.2226,11897.8,1.17346,0.03
423,1.22256,1451.14,1.17394,0.03
424,1.22371,6906.31,1.17443,0.03
425,1.22451,1168.31,1.17491,0.03
426,1.22663,16109.2,1.1754,0.03
427,1.22684,730.067,1.17588,0.03
428,1.22714,1410.13,1.17637,0.03
429,1.22577,1508.75,1.17685,0.03
430,1.22747,1723.5,1.17734,0.03
431,1.22741,1981.53,1.17783,0.03
432,1.22685,1036,1.17831,0.03
433,1.22723,4271.97,1.1788,0.03
434,1.2285,1661.65,1.17928,0.03
435,1.23027,1572.42,1.17977,0.03
436,1.22834,2360.09,1.18026,0.03
437,1.22508,7815.24,1.18074,0.03
438,1.22471,5957.7,1.18123,0.03
439,1.22407,1156.17,1.18172,0.03
440,1.22496,2071.07,1.1822,0.03
441,1.22349,1097.31,1.18269,0.03
442,1.223,1298.72,1.18318,0.03
443,1.21788,699.612,1.18367,0.03
444,1.21826,1955.12,1.18416,0.03
445,1.21826,3106.04,1.18464,0.03
446,1.21851,5383.89,1.18513,0.03
447,1.2183,2149.14,1.18562,0.03
448,1.21908,4466.03,1.18611,0.03
449,1.22184,3387.89,1.1866,0.03
450,1.22442,3171.24,1.18709,0.03
451,1.2252,12533.4,1.18758,0.03
452,1.22309,1447.98,1.18807,0.03
453,1.22125,4862.21,1.18857,0.03
454,1.21905,755.031,1.18906,0.03
455,1.22053,2975.16,1.18955,0.03
456,1.2196,763.941,1.19004,0.03
457,1.2206,90852.2,1.19053,0.03
458,1.22043,1369.14,1.19102,0.03
459,1.22244,1956.33,1.19152,0.03
460,1.22007,1183.42,1.19201,0.03
461,1.21802,528.729,1.1925,0.03
462,1.21763,657.61,1.193,0.03
463,1.21911,5622.19,1.19349,0.03
464,1.21665,4840.26,1.19398,0.03
465,1.21715,1962.81,1.19448,0.03
466,1.21975,1218.15,1.19497,0.03
467,1.21977,2099.85,1.19547,0.03
468,1.21933,6792.69,1.19596,0.03
469,1.22129,2936.64,1.19646,0.03
470,1.21847,811.969,1.19695,0.03
471,1.22185,4468.36,1.19745,0.03
472,1.2203,906.194,1.19794,0.03
473,1.22208,2079.66,1.19844,0.03
474,1.22268,871.867,1.19894,0.03
475,1.22133,594.149,1.19943,0.03
476,1.21813,1110.1,1.19993,0.03
477,1.21721,11708.3,1.20043,0.03
478,1.21466,22024.8,1.20093,0.03
479,1.21444,976.368,1.20143,0.03
480,1.21484,2130.15,1.20193,0.03
481,1.2144,8284.16,1.20243,0.03
482,1.21806,1737.47,1.20292,0.03
483,1.21629,3123.17,1.20342,0.03
484,1.21742,1796.06,1.20392,0.03
485,1.21763,2166.47,1.20442,0.03
486,1.2173,1871.91,1.20492,0.03
487,1.21402,1202.83,1.20542,0.03
488,1.2179,66565.1,1.20592,0.03
489,1.21633,1863.69,1.20642,0.03
490,1.21606,1221.73,1.20692,0.03
491,1.21211,663.026,1.20742,0.03
492,1.21474,13884.1,1.20792,0.03
493,1.21715,4946.09,1.20842,0.03
494,1.21507,25062.7,1.20893,0.03
495,1.21495,851.05,1.20943,0.03
496,1.21569,3198.6,1.20993,0.03
497,1.21579,834.707,1.21043,0.03
498,1.21671,782.31,1.21093,0.03
499,1.21591,918.008,1.21143,0.03
500,1.21535,958.624,1.21193,0.03
501,1.21568,4015.62,1.21243,0.03
502,1.21567,980.037,1.21294,0.03
503,1.21569,816.207,1.21344,0.03
504,1.21556,1224.89,1.21394,0.03
505,1.21463,790.683,1.21445,0.03
506,1.21309,1011.66,1.21495,0.03
507,1.21374,1369.85,1.21545,0.03
508,1.21228,1499.44,1.21596,0.03
509,1.21165,1431.73,1.21646,0.03
510,1.21309,6677.75,1.21696,0.03
511,1.21266,957.963,1.21747,0.03
512,1.21479,1602.21,1.21797,0.03
513,1.21711,7673.01,1.21847,0.03
514,1.21714,1979.38,1.21898,0.03
515,1.21701,1633.78,1.21948,0.03
516,1.21569,724.219,1.21999,0.03
517,1.21353,1162.28,1.2205,0.03
518,1.21649,16146.1,1.221,0.03
519,1.21589,1570.5,1.22151,0.03
520,1.21496,1128.62,1.22201,0.03
521,1.2153,2273.98,1.22252,0.03
522,1.21108,721.725,1.22303,0.03
523,1.21044,1284.02,1.22353,0.03
524,1.21144,1607.89,1.22404,0.03
525,1.21062,848.804,1.22455,0.03
526,1.20821,565.546,1.22505,0.03
527,1.2071,819.302,1.22556,0.03
528,1.20889,2148.53,1.22607,0.03
529,1.209,13713.5,1.22657,0.03
530,1.20708,768.48,1.22708,0.03
531,1.20595,1487.09,1.22759,0.03
532,1.20575,22713.3,1.2281,0.03
533,1.20657,1815.59,1.22861,0.03
534,1.20371,1133.85,1.22911,0.03
535,1.20141,2742.72,1.22962,0.03
536,1.20057,1296.77,1.23013,0.03
537,1.20193,10002.8,1.23064,0.03
538,1.20311,4730.45,1.23115,0.03
539,1.20261,1968.77,1.23166,0.03
540,1.20275,3078.42,1.23217,0.03
541,1.20184,1552.88,1.23268,0.03
542,1.19987,718.903,1.23319,0.03
543,1.20075,2041.88,1.2337,0.03
544,1.20124,1006.12,1.23421,0.03
545,1.19789,1384.76,1.23472,0.03
546,1.19982,1293.04,1.23523,0.03
547,1.20103,1456.24,1.23574,0.03
548,1.19922,897.52,1.23625,0.03
549,1.19961,2194.9,1.23676,0.03
550,1.20086,1207.96,1.23727,0.03
551,1.20222,2869.58,1.23778,0.03
552,1.20101,1612.95,1.2383,0.03
553,1.20059,770.342,1.23881,0.03
554,1.1999,3352.88,1.23932,0.03
555,1.19983,673.077,1.23983,0.03
556,1.20074,1756.19,1.24035,0.03
557,1.20085,4442.03,1.24086,0.03
558,1.19938,1316.55,1.24137,0.03
559,1.19843,51915.5,1.24189,0.03
560,1.2027,5909.96,1.2424,0.03
561,1.20229,731.373,1.24292,0.03
562,1.20246,1073.14,1.24343,0.03
563,1.203,1971.9,1.24394,0.03
564,1.20234,1197.19,1.24446,0.03
565,1.20353,2643.12,1.24498,0.03
566,1.20041,937.835,1.24549,0.03
567,1.20068,781.145,1.24601,0.03
568,1.19963,1130.7,1.24652,0.03
569,1.19928,1337.06,1.24704,0.03
570,1.20032,2210.35,1.24756,0.03
571,1.19833,1071.26,1.24807,0.03
572,1.20029,831.496,1.24859,0.03
573,1.19301,295.281,1.24911,0.03
574,1.19328,917.865,1.24963,0.03
575,1.19478,27302.3,1.25014,0.03
576,1.1949,1149.51,1.25066,0.03
577,1.19569,50507.4,1.25118,0.03
578,1.19342,25062.7,1.2517,0.03
579,1.19299,1864.19,1.25222,0.03
580,1.19347,3845.57,1.25273,0.03
581,1.19212,24227.2,1.25325,0.03
582,1.19191,2673.17,1.25377,0.03
583,1.19256,72681.7,1.25429,0.03
584,1.19359,1348.35,1.25481,0.03
585,1.19436,1057.2,1.25533,0.03
586,1.19502,1547.48,1.25585,0.03
587,1.1958,2926.09,1.25637,0.03
588,1.20002,1218.46,1.25689,0.03
589,1.2004,2314.17,1.25741,0.03
590,1.1989,1161.06,1.25793,0.03
591,1.19895,973.033,1.25845,0.03
592,1.20046,10006.5,1.25897,0.03
593,1.20288,1989.52,1.2595,0.03
594,1.20527,3222.78,1.26002,0.03
595,1.20573,11012.6,1.26054,0.03
596,1.20483,765.566,1.26106,0.03
597,1.20571,3225.8,1.26158,0.03
598,1.20328,4226.97,1.26211,0.03
599,1.20075,968.959,1.26263,0.03
600,1.20113,1238.95,1.26315,0.03
601,1.19949,1769.62,1.26367,0.03
602,1.1995,4566.15,1.2642,0.03
603,1.19755,743.896,1.26472,0.03
604,1.19843,2000.28,1.26524,0.03
605,1.19879,1778.2,1.26577,0.03
606,1.20001,1639.57,1.26629,0.03
607,1.19828,761.512,1.26682,0.03
608,1.19891,1231,1.26734,0.03
609,1.19915,2125.68,1.26787,0.03
610,1.19601,666.144,1.26839,0.03
611,1.19438,2629.16,1.26892,0.03
612,1.19475,1016.25,1.26944,0.03
613,1.19365,594.431,1.26997,0.03
